'Time and date','ECG '
'hh:mm:ss.mmm dd/mm/yyyy','mV'
'[05:05:15.000 01/05/2000]',-0.127
'[05:05:15.003 01/05/2000]',-0.162
'[05:05:15.007 01/05/2000]',-0.197
'[05:05:15.010 01/05/2000]',-0.229
'[05:05:15.013 01/05/2000]',-0.245
'[05:05:15.017 01/05/2000]',-0.254
'[05:05:15.020 01/05/2000]',-0.261
'[05:05:15.023 01/05/2000]',-0.265
'[05:05:15.027 01/05/2000]',-0.268
'[05:05:15.030 01/05/2000]',-0.268
'[05:05:15.033 01/05/2000]',-0.267
'[05:05:15.037 01/05/2000]',-0.265
'[05:05:15.040 01/05/2000]',-0.263
'[05:05:15.043 01/05/2000]',-0.260
'[05:05:15.047 01/05/2000]',-0.256
'[05:05:15.050 01/05/2000]',-0.253
'[05:05:15.053 01/05/2000]',-0.249
'[05:05:15.057 01/05/2000]',-0.247
'[05:05:15.060 01/05/2000]',-0.245
'[05:05:15.063 01/05/2000]',-0.243
'[05:05:15.067 01/05/2000]',-0.241
'[05:05:15.070 01/05/2000]',-0.238
'[05:05:15.073 01/05/2000]',-0.236
'[05:05:15.077 01/05/2000]',-0.234
'[05:05:15.080 01/05/2000]',-0.232
'[05:05:15.083 01/05/2000]',-0.231
'[05:05:15.087 01/05/2000]',-0.230
'[05:05:15.090 01/05/2000]',-0.229
'[05:05:15.093 01/05/2000]',-0.229
'[05:05:15.097 01/05/2000]',-0.229
'[05:05:15.100 01/05/2000]',-0.229
'[05:05:15.103 01/05/2000]',-0.230
'[05:05:15.107 01/05/2000]',-0.230
'[05:05:15.110 01/05/2000]',-0.230
'[05:05:15.113 01/05/2000]',-0.229
'[05:05:15.117 01/05/2000]',-0.229
'[05:05:15.120 01/05/2000]',-0.227
'[05:05:15.123 01/05/2000]',-0.225
'[05:05:15.127 01/05/2000]',-0.221
'[05:05:15.130 01/05/2000]',-0.218
'[05:05:15.133 01/05/2000]',-0.215
'[05:05:15.137 01/05/2000]',-0.213
'[05:05:15.140 01/05/2000]',-0.213
'[05:05:15.143 01/05/2000]',-0.213
'[05:05:15.147 01/05/2000]',-0.212
'[05:05:15.150 01/05/2000]',-0.211
'[05:05:15.153 01/05/2000]',-0.210
'[05:05:15.157 01/05/2000]',-0.209
'[05:05:15.160 01/05/2000]',-0.206
'[05:05:15.163 01/05/2000]',-0.203
'[05:05:15.167 01/05/2000]',-0.201
'[05:05:15.170 01/05/2000]',-0.198
'[05:05:15.173 01/05/2000]',-0.198
'[05:05:15.177 01/05/2000]',-0.200
'[05:05:15.180 01/05/2000]',-0.204
'[05:05:15.183 01/05/2000]',-0.210
'[05:05:15.187 01/05/2000]',-0.216
'[05:05:15.190 01/05/2000]',-0.224
'[05:05:15.193 01/05/2000]',-0.233
'[05:05:15.197 01/05/2000]',-0.243
'[05:05:15.200 01/05/2000]',-0.253
'[05:05:15.203 01/05/2000]',-0.262
'[05:05:15.207 01/05/2000]',-0.270
'[05:05:15.210 01/05/2000]',-0.275
'[05:05:15.213 01/05/2000]',-0.281
'[05:05:15.217 01/05/2000]',-0.286
'[05:05:15.220 01/05/2000]',-0.291
'[05:05:15.223 01/05/2000]',-0.292
'[05:05:15.227 01/05/2000]',-0.289
'[05:05:15.230 01/05/2000]',-0.282
'[05:05:15.233 01/05/2000]',-0.273
'[05:05:15.237 01/05/2000]',-0.264
'[05:05:15.240 01/05/2000]',-0.259
'[05:05:15.243 01/05/2000]',-0.255
'[05:05:15.247 01/05/2000]',-0.250
'[05:05:15.250 01/05/2000]',-0.246
'[05:05:15.253 01/05/2000]',-0.241
'[05:05:15.257 01/05/2000]',-0.237
'[05:05:15.260 01/05/2000]',-0.233
'[05:05:15.263 01/05/2000]',-0.229
'[05:05:15.267 01/05/2000]',-0.226
'[05:05:15.270 01/05/2000]',-0.222
'[05:05:15.273 01/05/2000]',-0.219
'[05:05:15.277 01/05/2000]',-0.216
'[05:05:15.280 01/05/2000]',-0.213
'[05:05:15.283 01/05/2000]',-0.209
'[05:05:15.287 01/05/2000]',-0.204
'[05:05:15.290 01/05/2000]',-0.195
'[05:05:15.293 01/05/2000]',-0.187
'[05:05:15.297 01/05/2000]',-0.179
'[05:05:15.300 01/05/2000]',-0.172
'[05:05:15.303 01/05/2000]',-0.169
'[05:05:15.307 01/05/2000]',-0.166
'[05:05:15.310 01/05/2000]',-0.164
'[05:05:15.313 01/05/2000]',-0.161
'[05:05:15.317 01/05/2000]',-0.159
'[05:05:15.320 01/05/2000]',-0.157
'[05:05:15.323 01/05/2000]',-0.156
'[05:05:15.327 01/05/2000]',-0.154
'[05:05:15.330 01/05/2000]',-0.153
'[05:05:15.333 01/05/2000]',-0.153
'[05:05:15.337 01/05/2000]',-0.154
'[05:05:15.340 01/05/2000]',-0.155
'[05:05:15.343 01/05/2000]',-0.157
'[05:05:15.347 01/05/2000]',-0.159
'[05:05:15.350 01/05/2000]',-0.160
'[05:05:15.353 01/05/2000]',-0.162
'[05:05:15.357 01/05/2000]',-0.164
'[05:05:15.360 01/05/2000]',-0.166
'[05:05:15.363 01/05/2000]',-0.167
'[05:05:15.367 01/05/2000]',-0.169
'[05:05:15.370 01/05/2000]',-0.170
'[05:05:15.373 01/05/2000]',-0.171
'[05:05:15.377 01/05/2000]',-0.174
'[05:05:15.380 01/05/2000]',-0.177
'[05:05:15.383 01/05/2000]',-0.177
'[05:05:15.387 01/05/2000]',-0.171
'[05:05:15.390 01/05/2000]',-0.158
'[05:05:15.393 01/05/2000]',-0.121
'[05:05:15.397 01/05/2000]',-0.066
'[05:05:15.400 01/05/2000]',0.011
'[05:05:15.403 01/05/2000]',0.109
'[05:05:15.407 01/05/2000]',0.219
'[05:05:15.410 01/05/2000]',0.331
'[05:05:15.413 01/05/2000]',0.434
'[05:05:15.417 01/05/2000]',0.519
'[05:05:15.420 01/05/2000]',0.575
'[05:05:15.423 01/05/2000]',0.593
'[05:05:15.427 01/05/2000]',0.578
'[05:05:15.430 01/05/2000]',0.533
'[05:05:15.433 01/05/2000]',0.440
'[05:05:15.437 01/05/2000]',0.329
'[05:05:15.440 01/05/2000]',0.213
'[05:05:15.443 01/05/2000]',0.099
'[05:05:15.447 01/05/2000]',-0.003
'[05:05:15.450 01/05/2000]',-0.088
'[05:05:15.453 01/05/2000]',-0.153
'[05:05:15.457 01/05/2000]',-0.189
'[05:05:15.460 01/05/2000]',-0.210
'[05:05:15.463 01/05/2000]',-0.222
'[05:05:15.467 01/05/2000]',-0.230
'[05:05:15.470 01/05/2000]',-0.237
'[05:05:15.473 01/05/2000]',-0.243
'[05:05:15.477 01/05/2000]',-0.248
'[05:05:15.480 01/05/2000]',-0.253
'[05:05:15.483 01/05/2000]',-0.256
'[05:05:15.487 01/05/2000]',-0.260
'[05:05:15.490 01/05/2000]',-0.263
'[05:05:15.493 01/05/2000]',-0.266
'[05:05:15.497 01/05/2000]',-0.267
'[05:05:15.500 01/05/2000]',-0.266
'[05:05:15.503 01/05/2000]',-0.264
'[05:05:15.507 01/05/2000]',-0.259
'[05:05:15.510 01/05/2000]',-0.254
'[05:05:15.513 01/05/2000]',-0.249
'[05:05:15.517 01/05/2000]',-0.244
'[05:05:15.520 01/05/2000]',-0.238
'[05:05:15.523 01/05/2000]',-0.231
'[05:05:15.527 01/05/2000]',-0.224
'[05:05:15.530 01/05/2000]',-0.216
'[05:05:15.533 01/05/2000]',-0.207
'[05:05:15.537 01/05/2000]',-0.199
'[05:05:15.540 01/05/2000]',-0.191
'[05:05:15.543 01/05/2000]',-0.183
'[05:05:15.547 01/05/2000]',-0.176
'[05:05:15.550 01/05/2000]',-0.170
'[05:05:15.553 01/05/2000]',-0.164
'[05:05:15.557 01/05/2000]',-0.159
'[05:05:15.560 01/05/2000]',-0.155
'[05:05:15.563 01/05/2000]',-0.150
'[05:05:15.567 01/05/2000]',-0.143
'[05:05:15.570 01/05/2000]',-0.137
'[05:05:15.573 01/05/2000]',-0.129
'[05:05:15.577 01/05/2000]',-0.122
'[05:05:15.580 01/05/2000]',-0.114
'[05:05:15.583 01/05/2000]',-0.104
'[05:05:15.587 01/05/2000]',-0.092
'[05:05:15.590 01/05/2000]',-0.077
'[05:05:15.593 01/05/2000]',-0.064
'[05:05:15.597 01/05/2000]',-0.052
'[05:05:15.600 01/05/2000]',-0.039
'[05:05:15.603 01/05/2000]',-0.027
'[05:05:15.607 01/05/2000]',-0.014
'[05:05:15.610 01/05/2000]',-0.001
'[05:05:15.613 01/05/2000]',0.009
'[05:05:15.617 01/05/2000]',0.018
'[05:05:15.620 01/05/2000]',0.026
'[05:05:15.623 01/05/2000]',0.034
'[05:05:15.627 01/05/2000]',0.042
'[05:05:15.630 01/05/2000]',0.049
'[05:05:15.633 01/05/2000]',0.053
'[05:05:15.637 01/05/2000]',0.056
'[05:05:15.640 01/05/2000]',0.058
'[05:05:15.643 01/05/2000]',0.061
'[05:05:15.647 01/05/2000]',0.064
'[05:05:15.650 01/05/2000]',0.067
'[05:05:15.653 01/05/2000]',0.070
'[05:05:15.657 01/05/2000]',0.072
'[05:05:15.660 01/05/2000]',0.073
'[05:05:15.663 01/05/2000]',0.073
'[05:05:15.667 01/05/2000]',0.073
'[05:05:15.670 01/05/2000]',0.072
'[05:05:15.673 01/05/2000]',0.071
'[05:05:15.677 01/05/2000]',0.069
'[05:05:15.680 01/05/2000]',0.066
'[05:05:15.683 01/05/2000]',0.062
'[05:05:15.687 01/05/2000]',0.058
'[05:05:15.690 01/05/2000]',0.053
'[05:05:15.693 01/05/2000]',0.049
'[05:05:15.697 01/05/2000]',0.045
'[05:05:15.700 01/05/2000]',0.039
'[05:05:15.703 01/05/2000]',0.030
'[05:05:15.707 01/05/2000]',0.021
'[05:05:15.710 01/05/2000]',0.014
'[05:05:15.713 01/05/2000]',0.007
'[05:05:15.717 01/05/2000]',0.000
'[05:05:15.720 01/05/2000]',-0.007
'[05:05:15.723 01/05/2000]',-0.013
'[05:05:15.727 01/05/2000]',-0.014
'[05:05:15.730 01/05/2000]',-0.010
'[05:05:15.733 01/05/2000]',-0.004
'[05:05:15.737 01/05/2000]',0.000
'[05:05:15.740 01/05/2000]',0.002
'[05:05:15.743 01/05/2000]',0.005
'[05:05:15.747 01/05/2000]',0.007
'[05:05:15.750 01/05/2000]',0.010
'[05:05:15.753 01/05/2000]',0.014
'[05:05:15.757 01/05/2000]',0.018
'[05:05:15.760 01/05/2000]',0.022
'[05:05:15.763 01/05/2000]',0.025
'[05:05:15.767 01/05/2000]',0.028
'[05:05:15.770 01/05/2000]',0.030
'[05:05:15.773 01/05/2000]',0.031
'[05:05:15.777 01/05/2000]',0.032
'[05:05:15.780 01/05/2000]',0.033
'[05:05:15.783 01/05/2000]',0.035
'[05:05:15.787 01/05/2000]',0.037
'[05:05:15.790 01/05/2000]',0.039
'[05:05:15.793 01/05/2000]',0.041
'[05:05:15.797 01/05/2000]',0.042
'[05:05:15.800 01/05/2000]',0.043
'[05:05:15.803 01/05/2000]',0.045
'[05:05:15.807 01/05/2000]',0.047
'[05:05:15.810 01/05/2000]',0.049
'[05:05:15.813 01/05/2000]',0.052
'[05:05:15.817 01/05/2000]',0.054
'[05:05:15.820 01/05/2000]',0.056
'[05:05:15.823 01/05/2000]',0.059
'[05:05:15.827 01/05/2000]',0.061
'[05:05:15.830 01/05/2000]',0.065
'[05:05:15.833 01/05/2000]',0.068
'[05:05:15.837 01/05/2000]',0.073
'[05:05:15.840 01/05/2000]',0.078
'[05:05:15.843 01/05/2000]',0.087
'[05:05:15.847 01/05/2000]',0.096
'[05:05:15.850 01/05/2000]',0.103
'[05:05:15.853 01/05/2000]',0.106
'[05:05:15.857 01/05/2000]',0.107
'[05:05:15.860 01/05/2000]',0.109
'[05:05:15.863 01/05/2000]',0.110
'[05:05:15.867 01/05/2000]',0.111
'[05:05:15.870 01/05/2000]',0.112
'[05:05:15.873 01/05/2000]',0.113
'[05:05:15.877 01/05/2000]',0.113
'[05:05:15.880 01/05/2000]',0.112
'[05:05:15.883 01/05/2000]',0.111
'[05:05:15.887 01/05/2000]',0.110
'[05:05:15.890 01/05/2000]',0.110
'[05:05:15.893 01/05/2000]',0.109
'[05:05:15.897 01/05/2000]',0.110
'[05:05:15.900 01/05/2000]',0.110
'[05:05:15.903 01/05/2000]',0.110
'[05:05:15.907 01/05/2000]',0.110
'[05:05:15.910 01/05/2000]',0.111
'[05:05:15.913 01/05/2000]',0.112
'[05:05:15.917 01/05/2000]',0.114
'[05:05:15.920 01/05/2000]',0.115
'[05:05:15.923 01/05/2000]',0.117
'[05:05:15.927 01/05/2000]',0.118
'[05:05:15.930 01/05/2000]',0.119
'[05:05:15.933 01/05/2000]',0.121
'[05:05:15.937 01/05/2000]',0.122
'[05:05:15.940 01/05/2000]',0.124
'[05:05:15.943 01/05/2000]',0.126
'[05:05:15.947 01/05/2000]',0.129
'[05:05:15.950 01/05/2000]',0.132
'[05:05:15.953 01/05/2000]',0.136
'[05:05:15.957 01/05/2000]',0.140
'[05:05:15.960 01/05/2000]',0.144
'[05:05:15.963 01/05/2000]',0.148
'[05:05:15.967 01/05/2000]',0.155
'[05:05:15.970 01/05/2000]',0.163
'[05:05:15.973 01/05/2000]',0.167
'[05:05:15.977 01/05/2000]',0.169
'[05:05:15.980 01/05/2000]',0.170
'[05:05:15.983 01/05/2000]',0.171
'[05:05:15.987 01/05/2000]',0.172
'[05:05:15.990 01/05/2000]',0.174
'[05:05:15.993 01/05/2000]',0.176
'[05:05:15.997 01/05/2000]',0.178
'[05:05:16.000 01/05/2000]',0.180
'[05:05:16.003 01/05/2000]',0.182
'[05:05:16.007 01/05/2000]',0.185
'[05:05:16.010 01/05/2000]',0.188
'[05:05:16.013 01/05/2000]',0.192
'[05:05:16.017 01/05/2000]',0.195
'[05:05:16.020 01/05/2000]',0.198
'[05:05:16.023 01/05/2000]',0.201
'[05:05:16.027 01/05/2000]',0.204
'[05:05:16.030 01/05/2000]',0.208
'[05:05:16.033 01/05/2000]',0.212
'[05:05:16.037 01/05/2000]',0.214
'[05:05:16.040 01/05/2000]',0.212
'[05:05:16.043 01/05/2000]',0.208
'[05:05:16.047 01/05/2000]',0.203
'[05:05:16.050 01/05/2000]',0.198
'[05:05:16.053 01/05/2000]',0.194
'[05:05:16.057 01/05/2000]',0.190
'[05:05:16.060 01/05/2000]',0.186
'[05:05:16.063 01/05/2000]',0.182
'[05:05:16.067 01/05/2000]',0.177
'[05:05:16.070 01/05/2000]',0.174
'[05:05:16.073 01/05/2000]',0.171
'[05:05:16.077 01/05/2000]',0.170
'[05:05:16.080 01/05/2000]',0.170
'[05:05:16.083 01/05/2000]',0.171
'[05:05:16.087 01/05/2000]',0.172
'[05:05:16.090 01/05/2000]',0.175
'[05:05:16.093 01/05/2000]',0.179
'[05:05:16.097 01/05/2000]',0.183
'[05:05:16.100 01/05/2000]',0.189
'[05:05:16.103 01/05/2000]',0.195
'[05:05:16.107 01/05/2000]',0.208
'[05:05:16.110 01/05/2000]',0.239
'[05:05:16.113 01/05/2000]',0.302
'[05:05:16.117 01/05/2000]',0.377
'[05:05:16.120 01/05/2000]',0.461
'[05:05:16.123 01/05/2000]',0.547
'[05:05:16.127 01/05/2000]',0.634
'[05:05:16.130 01/05/2000]',0.722
'[05:05:16.133 01/05/2000]',0.803
'[05:05:16.137 01/05/2000]',0.849
'[05:05:16.140 01/05/2000]',0.865
'[05:05:16.143 01/05/2000]',0.845
'[05:05:16.147 01/05/2000]',0.786
'[05:05:16.150 01/05/2000]',0.694
'[05:05:16.153 01/05/2000]',0.593
'[05:05:16.157 01/05/2000]',0.495
'[05:05:16.160 01/05/2000]',0.401
'[05:05:16.163 01/05/2000]',0.310
'[05:05:16.167 01/05/2000]',0.225
'[05:05:16.170 01/05/2000]',0.151
'[05:05:16.173 01/05/2000]',0.113
'[05:05:16.177 01/05/2000]',0.103
'[05:05:16.180 01/05/2000]',0.095
'[05:05:16.183 01/05/2000]',0.091
'[05:05:16.187 01/05/2000]',0.088
'[05:05:16.190 01/05/2000]',0.087
'[05:05:16.193 01/05/2000]',0.087
'[05:05:16.197 01/05/2000]',0.088
'[05:05:16.200 01/05/2000]',0.091
'[05:05:16.203 01/05/2000]',0.094
'[05:05:16.207 01/05/2000]',0.098
'[05:05:16.210 01/05/2000]',0.103
'[05:05:16.213 01/05/2000]',0.108
'[05:05:16.217 01/05/2000]',0.111
'[05:05:16.220 01/05/2000]',0.114
'[05:05:16.223 01/05/2000]',0.117
'[05:05:16.227 01/05/2000]',0.119
'[05:05:16.230 01/05/2000]',0.122
'[05:05:16.233 01/05/2000]',0.125
'[05:05:16.237 01/05/2000]',0.128
'[05:05:16.240 01/05/2000]',0.132
'[05:05:16.243 01/05/2000]',0.135
'[05:05:16.247 01/05/2000]',0.137
'[05:05:16.250 01/05/2000]',0.139
'[05:05:16.253 01/05/2000]',0.141
'[05:05:16.257 01/05/2000]',0.143
'[05:05:16.260 01/05/2000]',0.145
'[05:05:16.263 01/05/2000]',0.147
'[05:05:16.267 01/05/2000]',0.150
'[05:05:16.270 01/05/2000]',0.154
'[05:05:16.273 01/05/2000]',0.157
'[05:05:16.277 01/05/2000]',0.161
'[05:05:16.280 01/05/2000]',0.166
'[05:05:16.283 01/05/2000]',0.171
'[05:05:16.287 01/05/2000]',0.176
'[05:05:16.290 01/05/2000]',0.180
'[05:05:16.293 01/05/2000]',0.182
'[05:05:16.297 01/05/2000]',0.184
'[05:05:16.300 01/05/2000]',0.184
'[05:05:16.303 01/05/2000]',0.183
'[05:05:16.307 01/05/2000]',0.181
'[05:05:16.310 01/05/2000]',0.179
'[05:05:16.313 01/05/2000]',0.176
'[05:05:16.317 01/05/2000]',0.172
'[05:05:16.320 01/05/2000]',0.167
'[05:05:16.323 01/05/2000]',0.161
'[05:05:16.327 01/05/2000]',0.152
'[05:05:16.330 01/05/2000]',0.133
'[05:05:16.333 01/05/2000]',0.118
'[05:05:16.337 01/05/2000]',0.109
'[05:05:16.340 01/05/2000]',0.104
'[05:05:16.343 01/05/2000]',0.099
'[05:05:16.347 01/05/2000]',0.096
'[05:05:16.350 01/05/2000]',0.092
'[05:05:16.353 01/05/2000]',0.088
'[05:05:16.357 01/05/2000]',0.083
'[05:05:16.360 01/05/2000]',0.079
'[05:05:16.363 01/05/2000]',0.075
'[05:05:16.367 01/05/2000]',0.071
'[05:05:16.370 01/05/2000]',0.066
'[05:05:16.373 01/05/2000]',0.061
'[05:05:16.377 01/05/2000]',0.053
'[05:05:16.380 01/05/2000]',0.045
'[05:05:16.383 01/05/2000]',0.037
'[05:05:16.387 01/05/2000]',0.030
'[05:05:16.390 01/05/2000]',0.022
'[05:05:16.393 01/05/2000]',0.005
'[05:05:16.397 01/05/2000]',-0.022
'[05:05:16.400 01/05/2000]',-0.051
'[05:05:16.403 01/05/2000]',-0.077
'[05:05:16.407 01/05/2000]',-0.100
'[05:05:16.410 01/05/2000]',-0.125
'[05:05:16.413 01/05/2000]',-0.150
'[05:05:16.417 01/05/2000]',-0.178
'[05:05:16.420 01/05/2000]',-0.200
'[05:05:16.423 01/05/2000]',-0.214
'[05:05:16.427 01/05/2000]',-0.228
'[05:05:16.430 01/05/2000]',-0.242
'[05:05:16.433 01/05/2000]',-0.250
'[05:05:16.437 01/05/2000]',-0.254
'[05:05:16.440 01/05/2000]',-0.257
'[05:05:16.443 01/05/2000]',-0.259
'[05:05:16.447 01/05/2000]',-0.261
'[05:05:16.450 01/05/2000]',-0.264
'[05:05:16.453 01/05/2000]',-0.267
'[05:05:16.457 01/05/2000]',-0.270
'[05:05:16.460 01/05/2000]',-0.272
'[05:05:16.463 01/05/2000]',-0.274
'[05:05:16.467 01/05/2000]',-0.276
'[05:05:16.470 01/05/2000]',-0.278
'[05:05:16.473 01/05/2000]',-0.280
'[05:05:16.477 01/05/2000]',-0.283
'[05:05:16.480 01/05/2000]',-0.286
'[05:05:16.483 01/05/2000]',-0.292
'[05:05:16.487 01/05/2000]',-0.308
'[05:05:16.490 01/05/2000]',-0.323
'[05:05:16.493 01/05/2000]',-0.335
'[05:05:16.497 01/05/2000]',-0.344
'[05:05:16.500 01/05/2000]',-0.352
'[05:05:16.503 01/05/2000]',-0.364
'[05:05:16.507 01/05/2000]',-0.376
'[05:05:16.510 01/05/2000]',-0.388
'[05:05:16.513 01/05/2000]',-0.400
'[05:05:16.517 01/05/2000]',-0.412
'[05:05:16.520 01/05/2000]',-0.421
'[05:05:16.523 01/05/2000]',-0.430
'[05:05:16.527 01/05/2000]',-0.448
'[05:05:16.530 01/05/2000]',-0.475
'[05:05:16.533 01/05/2000]',-0.502
'[05:05:16.537 01/05/2000]',-0.526
'[05:05:16.540 01/05/2000]',-0.547
'[05:05:16.543 01/05/2000]',-0.570
'[05:05:16.547 01/05/2000]',-0.592
'[05:05:16.550 01/05/2000]',-0.618
'[05:05:16.553 01/05/2000]',-0.648
'[05:05:16.557 01/05/2000]',-0.680
'[05:05:16.560 01/05/2000]',-0.709
'[05:05:16.563 01/05/2000]',-0.729
'[05:05:16.567 01/05/2000]',-0.738
'[05:05:16.570 01/05/2000]',-0.745
'[05:05:16.573 01/05/2000]',-0.751
'[05:05:16.577 01/05/2000]',-0.754
'[05:05:16.580 01/05/2000]',-0.748
'[05:05:16.583 01/05/2000]',-0.736
'[05:05:16.587 01/05/2000]',-0.716
'[05:05:16.590 01/05/2000]',-0.689
'[05:05:16.593 01/05/2000]',-0.670
'[05:05:16.597 01/05/2000]',-0.658
'[05:05:16.600 01/05/2000]',-0.645
'[05:05:16.603 01/05/2000]',-0.632
'[05:05:16.607 01/05/2000]',-0.616
'[05:05:16.610 01/05/2000]',-0.597
'[05:05:16.613 01/05/2000]',-0.582
'[05:05:16.617 01/05/2000]',-0.568
'[05:05:16.620 01/05/2000]',-0.554
'[05:05:16.623 01/05/2000]',-0.535
'[05:05:16.627 01/05/2000]',-0.515
'[05:05:16.630 01/05/2000]',-0.496
'[05:05:16.633 01/05/2000]',-0.481
'[05:05:16.637 01/05/2000]',-0.472
'[05:05:16.640 01/05/2000]',-0.467
'[05:05:16.643 01/05/2000]',-0.464
'[05:05:16.647 01/05/2000]',-0.460
'[05:05:16.650 01/05/2000]',-0.457
'[05:05:16.653 01/05/2000]',-0.452
'[05:05:16.657 01/05/2000]',-0.447
'[05:05:16.660 01/05/2000]',-0.442
'[05:05:16.663 01/05/2000]',-0.435
'[05:05:16.667 01/05/2000]',-0.426
'[05:05:16.670 01/05/2000]',-0.412
'[05:05:16.673 01/05/2000]',-0.389
'[05:05:16.677 01/05/2000]',-0.376
'[05:05:16.680 01/05/2000]',-0.360
'[05:05:16.683 01/05/2000]',-0.337
'[05:05:16.687 01/05/2000]',-0.314
'[05:05:16.690 01/05/2000]',-0.289
'[05:05:16.693 01/05/2000]',-0.274
'[05:05:16.697 01/05/2000]',-0.267
'[05:05:16.700 01/05/2000]',-0.261
'[05:05:16.703 01/05/2000]',-0.256
'[05:05:16.707 01/05/2000]',-0.250
'[05:05:16.710 01/05/2000]',-0.245
'[05:05:16.713 01/05/2000]',-0.239
'[05:05:16.717 01/05/2000]',-0.233
'[05:05:16.720 01/05/2000]',-0.227
'[05:05:16.723 01/05/2000]',-0.221
'[05:05:16.727 01/05/2000]',-0.212
'[05:05:16.730 01/05/2000]',-0.202
'[05:05:16.733 01/05/2000]',-0.190
'[05:05:16.737 01/05/2000]',-0.172
'[05:05:16.740 01/05/2000]',-0.148
'[05:05:16.743 01/05/2000]',-0.130
'[05:05:16.747 01/05/2000]',-0.116
'[05:05:16.750 01/05/2000]',-0.104
'[05:05:16.753 01/05/2000]',-0.092
'[05:05:16.757 01/05/2000]',-0.078
'[05:05:16.760 01/05/2000]',-0.068
'[05:05:16.763 01/05/2000]',-0.060
'[05:05:16.767 01/05/2000]',-0.054
'[05:05:16.770 01/05/2000]',-0.049
'[05:05:16.773 01/05/2000]',-0.047
'[05:05:16.777 01/05/2000]',-0.045
'[05:05:16.780 01/05/2000]',-0.043
'[05:05:16.783 01/05/2000]',-0.041
'[05:05:16.787 01/05/2000]',-0.040
'[05:05:16.790 01/05/2000]',-0.038
'[05:05:16.793 01/05/2000]',-0.035
'[05:05:16.797 01/05/2000]',-0.033
'[05:05:16.800 01/05/2000]',-0.040
'[05:05:16.803 01/05/2000]',-0.052
'[05:05:16.807 01/05/2000]',-0.059
'[05:05:16.810 01/05/2000]',-0.066
'[05:05:16.813 01/05/2000]',-0.072
'[05:05:16.817 01/05/2000]',-0.076
'[05:05:16.820 01/05/2000]',-0.078
'[05:05:16.823 01/05/2000]',-0.077
'[05:05:16.827 01/05/2000]',-0.074
'[05:05:16.830 01/05/2000]',-0.067
'[05:05:16.833 01/05/2000]',-0.055
'[05:05:16.837 01/05/2000]',-0.018
'[05:05:16.840 01/05/2000]',0.033
'[05:05:16.843 01/05/2000]',0.102
'[05:05:16.847 01/05/2000]',0.193
'[05:05:16.850 01/05/2000]',0.310
'[05:05:16.853 01/05/2000]',0.441
'[05:05:16.857 01/05/2000]',0.567
'[05:05:16.860 01/05/2000]',0.669
'[05:05:16.863 01/05/2000]',0.718
'[05:05:16.867 01/05/2000]',0.735
'[05:05:16.870 01/05/2000]',0.711
'[05:05:16.873 01/05/2000]',0.638
'[05:05:16.877 01/05/2000]',0.511
'[05:05:16.880 01/05/2000]',0.355
'[05:05:16.883 01/05/2000]',0.196
'[05:05:16.887 01/05/2000]',0.056
'[05:05:16.890 01/05/2000]',-0.043
'[05:05:16.893 01/05/2000]',-0.096
'[05:05:16.897 01/05/2000]',-0.122
'[05:05:16.900 01/05/2000]',-0.144
'[05:05:16.903 01/05/2000]',-0.173
'[05:05:16.907 01/05/2000]',-0.195
'[05:05:16.910 01/05/2000]',-0.207
'[05:05:16.913 01/05/2000]',-0.215
'[05:05:16.917 01/05/2000]',-0.218
'[05:05:16.920 01/05/2000]',-0.215
'[05:05:16.923 01/05/2000]',-0.209
'[05:05:16.927 01/05/2000]',-0.202
'[05:05:16.930 01/05/2000]',-0.194
'[05:05:16.933 01/05/2000]',-0.186
'[05:05:16.937 01/05/2000]',-0.178
'[05:05:16.940 01/05/2000]',-0.168
'[05:05:16.943 01/05/2000]',-0.159
'[05:05:16.947 01/05/2000]',-0.152
'[05:05:16.950 01/05/2000]',-0.146
'[05:05:16.953 01/05/2000]',-0.141
'[05:05:16.957 01/05/2000]',-0.136
'[05:05:16.960 01/05/2000]',-0.133
'[05:05:16.963 01/05/2000]',-0.130
'[05:05:16.967 01/05/2000]',-0.126
'[05:05:16.970 01/05/2000]',-0.123
'[05:05:16.973 01/05/2000]',-0.119
'[05:05:16.977 01/05/2000]',-0.115
'[05:05:16.980 01/05/2000]',-0.111
'[05:05:16.983 01/05/2000]',-0.107
'[05:05:16.987 01/05/2000]',-0.103
'[05:05:16.990 01/05/2000]',-0.098
'[05:05:16.993 01/05/2000]',-0.092
'[05:05:16.997 01/05/2000]',-0.086
'[05:05:17.000 01/05/2000]',-0.080
'[05:05:17.003 01/05/2000]',-0.075
'[05:05:17.007 01/05/2000]',-0.069
'[05:05:17.010 01/05/2000]',-0.062
'[05:05:17.013 01/05/2000]',-0.053
'[05:05:17.017 01/05/2000]',-0.041
'[05:05:17.020 01/05/2000]',-0.026
'[05:05:17.023 01/05/2000]',-0.007
'[05:05:17.027 01/05/2000]',0.010
'[05:05:17.030 01/05/2000]',0.028
'[05:05:17.033 01/05/2000]',0.041
'[05:05:17.037 01/05/2000]',0.049
'[05:05:17.040 01/05/2000]',0.058
'[05:05:17.043 01/05/2000]',0.067
'[05:05:17.047 01/05/2000]',0.078
'[05:05:17.050 01/05/2000]',0.090
'[05:05:17.053 01/05/2000]',0.101
'[05:05:17.057 01/05/2000]',0.110
'[05:05:17.060 01/05/2000]',0.119
'[05:05:17.063 01/05/2000]',0.130
'[05:05:17.067 01/05/2000]',0.140
'[05:05:17.070 01/05/2000]',0.148
'[05:05:17.073 01/05/2000]',0.154
'[05:05:17.077 01/05/2000]',0.160
'[05:05:17.080 01/05/2000]',0.166
'[05:05:17.083 01/05/2000]',0.171
'[05:05:17.087 01/05/2000]',0.177
'[05:05:17.090 01/05/2000]',0.181
'[05:05:17.093 01/05/2000]',0.187
'[05:05:17.097 01/05/2000]',0.193
'[05:05:17.100 01/05/2000]',0.203
'[05:05:17.103 01/05/2000]',0.217
'[05:05:17.107 01/05/2000]',0.226
'[05:05:17.110 01/05/2000]',0.232
'[05:05:17.113 01/05/2000]',0.236
'[05:05:17.117 01/05/2000]',0.239
'[05:05:17.120 01/05/2000]',0.242
'[05:05:17.123 01/05/2000]',0.244
'[05:05:17.127 01/05/2000]',0.244
'[05:05:17.130 01/05/2000]',0.241
'[05:05:17.133 01/05/2000]',0.233
'[05:05:17.137 01/05/2000]',0.224
'[05:05:17.140 01/05/2000]',0.211
'[05:05:17.143 01/05/2000]',0.192
'[05:05:17.147 01/05/2000]',0.176
'[05:05:17.150 01/05/2000]',0.162
'[05:05:17.153 01/05/2000]',0.151
'[05:05:17.157 01/05/2000]',0.139
'[05:05:17.160 01/05/2000]',0.126
'[05:05:17.163 01/05/2000]',0.119
'[05:05:17.167 01/05/2000]',0.114
'[05:05:17.170 01/05/2000]',0.110
'[05:05:17.173 01/05/2000]',0.107
'[05:05:17.177 01/05/2000]',0.105
'[05:05:17.180 01/05/2000]',0.103
'[05:05:17.183 01/05/2000]',0.102
'[05:05:17.187 01/05/2000]',0.101
'[05:05:17.190 01/05/2000]',0.101
'[05:05:17.193 01/05/2000]',0.101
'[05:05:17.197 01/05/2000]',0.102
'[05:05:17.200 01/05/2000]',0.104
'[05:05:17.203 01/05/2000]',0.105
'[05:05:17.207 01/05/2000]',0.106
'[05:05:17.210 01/05/2000]',0.108
'[05:05:17.213 01/05/2000]',0.110
'[05:05:17.217 01/05/2000]',0.111
'[05:05:17.220 01/05/2000]',0.112
'[05:05:17.223 01/05/2000]',0.112
'[05:05:17.227 01/05/2000]',0.113
'[05:05:17.230 01/05/2000]',0.113
'[05:05:17.233 01/05/2000]',0.115
'[05:05:17.237 01/05/2000]',0.117
'[05:05:17.240 01/05/2000]',0.117
'[05:05:17.243 01/05/2000]',0.115
'[05:05:17.247 01/05/2000]',0.109
'[05:05:17.250 01/05/2000]',0.104
'[05:05:17.253 01/05/2000]',0.101
'[05:05:17.257 01/05/2000]',0.099
'[05:05:17.260 01/05/2000]',0.097
'[05:05:17.263 01/05/2000]',0.094
'[05:05:17.267 01/05/2000]',0.092
'[05:05:17.270 01/05/2000]',0.091
'[05:05:17.273 01/05/2000]',0.090
'[05:05:17.277 01/05/2000]',0.089
'[05:05:17.280 01/05/2000]',0.088
'[05:05:17.283 01/05/2000]',0.088
'[05:05:17.287 01/05/2000]',0.088
'[05:05:17.290 01/05/2000]',0.090
'[05:05:17.293 01/05/2000]',0.096
'[05:05:17.297 01/05/2000]',0.099
'[05:05:17.300 01/05/2000]',0.101
'[05:05:17.303 01/05/2000]',0.103
'[05:05:17.307 01/05/2000]',0.104
'[05:05:17.310 01/05/2000]',0.105
'[05:05:17.313 01/05/2000]',0.107
'[05:05:17.317 01/05/2000]',0.109
'[05:05:17.320 01/05/2000]',0.110
'[05:05:17.323 01/05/2000]',0.111
'[05:05:17.327 01/05/2000]',0.111
'[05:05:17.330 01/05/2000]',0.111
'[05:05:17.333 01/05/2000]',0.111
'[05:05:17.337 01/05/2000]',0.111
'[05:05:17.340 01/05/2000]',0.111
'[05:05:17.343 01/05/2000]',0.110
'[05:05:17.347 01/05/2000]',0.109
'[05:05:17.350 01/05/2000]',0.106
'[05:05:17.353 01/05/2000]',0.102
'[05:05:17.357 01/05/2000]',0.097
'[05:05:17.360 01/05/2000]',0.092
'[05:05:17.363 01/05/2000]',0.087
'[05:05:17.367 01/05/2000]',0.082
'[05:05:17.370 01/05/2000]',0.079
'[05:05:17.373 01/05/2000]',0.076
'[05:05:17.377 01/05/2000]',0.074
'[05:05:17.380 01/05/2000]',0.073
'[05:05:17.383 01/05/2000]',0.073
'[05:05:17.387 01/05/2000]',0.076
'[05:05:17.390 01/05/2000]',0.079
'[05:05:17.393 01/05/2000]',0.084
'[05:05:17.397 01/05/2000]',0.089
'[05:05:17.400 01/05/2000]',0.094
'[05:05:17.403 01/05/2000]',0.100
'[05:05:17.407 01/05/2000]',0.112
'[05:05:17.410 01/05/2000]',0.126
'[05:05:17.413 01/05/2000]',0.142
'[05:05:17.417 01/05/2000]',0.153
'[05:05:17.420 01/05/2000]',0.162
'[05:05:17.423 01/05/2000]',0.169
'[05:05:17.427 01/05/2000]',0.174
'[05:05:17.430 01/05/2000]',0.175
'[05:05:17.433 01/05/2000]',0.173
'[05:05:17.437 01/05/2000]',0.170
'[05:05:17.440 01/05/2000]',0.165
'[05:05:17.443 01/05/2000]',0.159
'[05:05:17.447 01/05/2000]',0.151
'[05:05:17.450 01/05/2000]',0.141
'[05:05:17.453 01/05/2000]',0.130
'[05:05:17.457 01/05/2000]',0.113
'[05:05:17.460 01/05/2000]',0.098
'[05:05:17.463 01/05/2000]',0.088
'[05:05:17.467 01/05/2000]',0.081
'[05:05:17.470 01/05/2000]',0.077
'[05:05:17.473 01/05/2000]',0.073
'[05:05:17.477 01/05/2000]',0.071
'[05:05:17.480 01/05/2000]',0.069
'[05:05:17.483 01/05/2000]',0.067
'[05:05:17.487 01/05/2000]',0.067
'[05:05:17.490 01/05/2000]',0.069
'[05:05:17.493 01/05/2000]',0.071
'[05:05:17.497 01/05/2000]',0.073
'[05:05:17.500 01/05/2000]',0.075
'[05:05:17.503 01/05/2000]',0.077
'[05:05:17.507 01/05/2000]',0.079
'[05:05:17.510 01/05/2000]',0.083
'[05:05:17.513 01/05/2000]',0.087
'[05:05:17.517 01/05/2000]',0.093
'[05:05:17.520 01/05/2000]',0.099
'[05:05:17.523 01/05/2000]',0.104
'[05:05:17.527 01/05/2000]',0.107
'[05:05:17.530 01/05/2000]',0.108
'[05:05:17.533 01/05/2000]',0.108
'[05:05:17.537 01/05/2000]',0.107
'[05:05:17.540 01/05/2000]',0.106
'[05:05:17.543 01/05/2000]',0.104
'[05:05:17.547 01/05/2000]',0.099
'[05:05:17.550 01/05/2000]',0.093
'[05:05:17.553 01/05/2000]',0.085
'[05:05:17.557 01/05/2000]',0.077
'[05:05:17.560 01/05/2000]',0.069
'[05:05:17.563 01/05/2000]',0.061
'[05:05:17.567 01/05/2000]',0.054
'[05:05:17.570 01/05/2000]',0.048
'[05:05:17.573 01/05/2000]',0.043
'[05:05:17.577 01/05/2000]',0.040
'[05:05:17.580 01/05/2000]',0.037
'[05:05:17.583 01/05/2000]',0.034
'[05:05:17.587 01/05/2000]',0.033
'[05:05:17.590 01/05/2000]',0.032
'[05:05:17.593 01/05/2000]',0.034
'[05:05:17.597 01/05/2000]',0.036
'[05:05:17.600 01/05/2000]',0.039
'[05:05:17.603 01/05/2000]',0.040
'[05:05:17.607 01/05/2000]',0.041
'[05:05:17.610 01/05/2000]',0.042
'[05:05:17.613 01/05/2000]',0.045
'[05:05:17.617 01/05/2000]',0.050
'[05:05:17.620 01/05/2000]',0.061
'[05:05:17.623 01/05/2000]',0.083
'[05:05:17.627 01/05/2000]',0.116
'[05:05:17.630 01/05/2000]',0.166
'[05:05:17.633 01/05/2000]',0.238
'[05:05:17.637 01/05/2000]',0.334
'[05:05:17.640 01/05/2000]',0.452
'[05:05:17.643 01/05/2000]',0.584
'[05:05:17.647 01/05/2000]',0.716
'[05:05:17.650 01/05/2000]',0.834
'[05:05:17.653 01/05/2000]',0.906
'[05:05:17.657 01/05/2000]',0.930
'[05:05:17.660 01/05/2000]',0.903
'[05:05:17.663 01/05/2000]',0.819
'[05:05:17.667 01/05/2000]',0.659
'[05:05:17.670 01/05/2000]',0.466
'[05:05:17.673 01/05/2000]',0.274
'[05:05:17.677 01/05/2000]',0.109
'[05:05:17.680 01/05/2000]',-0.008
'[05:05:17.683 01/05/2000]',-0.056
'[05:05:17.687 01/05/2000]',-0.074
'[05:05:17.690 01/05/2000]',-0.075
'[05:05:17.693 01/05/2000]',-0.069
'[05:05:17.697 01/05/2000]',-0.063
'[05:05:17.700 01/05/2000]',-0.058
'[05:05:17.703 01/05/2000]',-0.061
'[05:05:17.707 01/05/2000]',-0.078
'[05:05:17.710 01/05/2000]',-0.089
'[05:05:17.713 01/05/2000]',-0.098
'[05:05:17.717 01/05/2000]',-0.105
'[05:05:17.720 01/05/2000]',-0.103
'[05:05:17.723 01/05/2000]',-0.093
'[05:05:17.727 01/05/2000]',-0.081
'[05:05:17.730 01/05/2000]',-0.075
'[05:05:17.733 01/05/2000]',-0.070
'[05:05:17.737 01/05/2000]',-0.066
'[05:05:17.740 01/05/2000]',-0.061
'[05:05:17.743 01/05/2000]',-0.056
'[05:05:17.747 01/05/2000]',-0.052
'[05:05:17.750 01/05/2000]',-0.050
'[05:05:17.753 01/05/2000]',-0.051
'[05:05:17.757 01/05/2000]',-0.055
'[05:05:17.760 01/05/2000]',-0.059
'[05:05:17.763 01/05/2000]',-0.062
'[05:05:17.767 01/05/2000]',-0.061
'[05:05:17.770 01/05/2000]',-0.059
'[05:05:17.773 01/05/2000]',-0.056
'[05:05:17.777 01/05/2000]',-0.051
'[05:05:17.780 01/05/2000]',-0.047
'[05:05:17.783 01/05/2000]',-0.044
'[05:05:17.787 01/05/2000]',-0.044
'[05:05:17.790 01/05/2000]',-0.044
'[05:05:17.793 01/05/2000]',-0.044
'[05:05:17.797 01/05/2000]',-0.042
'[05:05:17.800 01/05/2000]',-0.038
'[05:05:17.803 01/05/2000]',-0.033
'[05:05:17.807 01/05/2000]',-0.028
'[05:05:17.810 01/05/2000]',-0.024
'[05:05:17.813 01/05/2000]',-0.022
'[05:05:17.817 01/05/2000]',-0.020
'[05:05:17.820 01/05/2000]',-0.017
'[05:05:17.823 01/05/2000]',-0.012
'[05:05:17.827 01/05/2000]',-0.005
'[05:05:17.830 01/05/2000]',0.002
'[05:05:17.833 01/05/2000]',0.014
'[05:05:17.837 01/05/2000]',0.027
'[05:05:17.840 01/05/2000]',0.038
'[05:05:17.843 01/05/2000]',0.050
'[05:05:17.847 01/05/2000]',0.062
'[05:05:17.850 01/05/2000]',0.072
'[05:05:17.853 01/05/2000]',0.082
'[05:05:17.857 01/05/2000]',0.091
'[05:05:17.860 01/05/2000]',0.097
'[05:05:17.863 01/05/2000]',0.098
'[05:05:17.867 01/05/2000]',0.097
'[05:05:17.870 01/05/2000]',0.097
'[05:05:17.873 01/05/2000]',0.097
'[05:05:17.877 01/05/2000]',0.097
'[05:05:17.880 01/05/2000]',0.099
'[05:05:17.883 01/05/2000]',0.099
'[05:05:17.887 01/05/2000]',0.098
'[05:05:17.890 01/05/2000]',0.096
'[05:05:17.893 01/05/2000]',0.093
'[05:05:17.897 01/05/2000]',0.090
'[05:05:17.900 01/05/2000]',0.085
'[05:05:17.903 01/05/2000]',0.078
'[05:05:17.907 01/05/2000]',0.070
'[05:05:17.910 01/05/2000]',0.061
'[05:05:17.913 01/05/2000]',0.051
'[05:05:17.917 01/05/2000]',0.042
'[05:05:17.920 01/05/2000]',0.036
'[05:05:17.923 01/05/2000]',0.031
'[05:05:17.927 01/05/2000]',0.027
'[05:05:17.930 01/05/2000]',0.022
'[05:05:17.933 01/05/2000]',0.017
'[05:05:17.937 01/05/2000]',0.011
'[05:05:17.940 01/05/2000]',0.003
'[05:05:17.943 01/05/2000]',-0.004
'[05:05:17.947 01/05/2000]',-0.011
'[05:05:17.950 01/05/2000]',-0.016
'[05:05:17.953 01/05/2000]',-0.020
'[05:05:17.957 01/05/2000]',-0.025
'[05:05:17.960 01/05/2000]',-0.030
'[05:05:17.963 01/05/2000]',-0.035
'[05:05:17.967 01/05/2000]',-0.039
'[05:05:17.970 01/05/2000]',-0.038
'[05:05:17.973 01/05/2000]',-0.034
'[05:05:17.977 01/05/2000]',-0.028
'[05:05:17.980 01/05/2000]',-0.020
'[05:05:17.983 01/05/2000]',-0.014
'[05:05:17.987 01/05/2000]',-0.008
'[05:05:17.990 01/05/2000]',-0.003
'[05:05:17.993 01/05/2000]',0.000
'[05:05:17.997 01/05/2000]',0.002
'[05:05:18.000 01/05/2000]',0.005
'[05:05:18.003 01/05/2000]',0.009
'[05:05:18.007 01/05/2000]',0.012
'[05:05:18.010 01/05/2000]',0.013
'[05:05:18.013 01/05/2000]',0.013
'[05:05:18.017 01/05/2000]',0.011
'[05:05:18.020 01/05/2000]',0.008
'[05:05:18.023 01/05/2000]',0.006
'[05:05:18.027 01/05/2000]',0.003
'[05:05:18.030 01/05/2000]',0.000
'[05:05:18.033 01/05/2000]',-0.001
'[05:05:18.037 01/05/2000]',-0.003
'[05:05:18.040 01/05/2000]',-0.005
'[05:05:18.043 01/05/2000]',-0.006
'[05:05:18.047 01/05/2000]',-0.006
'[05:05:18.050 01/05/2000]',-0.006
'[05:05:18.053 01/05/2000]',-0.005
'[05:05:18.057 01/05/2000]',-0.003
'[05:05:18.060 01/05/2000]',-0.002
'[05:05:18.063 01/05/2000]',-0.001
'[05:05:18.067 01/05/2000]',-0.001
'[05:05:18.070 01/05/2000]',0.000
'[05:05:18.073 01/05/2000]',0.002
'[05:05:18.077 01/05/2000]',0.005
'[05:05:18.080 01/05/2000]',0.007
'[05:05:18.083 01/05/2000]',-0.001
'[05:05:18.087 01/05/2000]',0.000
'[05:05:18.090 01/05/2000]',0.000
'[05:05:18.093 01/05/2000]',0.001
'[05:05:18.097 01/05/2000]',0.001
'[05:05:18.100 01/05/2000]',0.001
'[05:05:18.103 01/05/2000]',0.001
'[05:05:18.107 01/05/2000]',0.001
'[05:05:18.110 01/05/2000]',0.002
'[05:05:18.113 01/05/2000]',0.002
'[05:05:18.117 01/05/2000]',0.003
'[05:05:18.120 01/05/2000]',0.003
'[05:05:18.123 01/05/2000]',0.003
'[05:05:18.127 01/05/2000]',0.003
'[05:05:18.130 01/05/2000]',0.003
'[05:05:18.133 01/05/2000]',0.004
'[05:05:18.137 01/05/2000]',0.004
'[05:05:18.140 01/05/2000]',0.003
'[05:05:18.143 01/05/2000]',0.002
'[05:05:18.147 01/05/2000]',0.001
'[05:05:18.150 01/05/2000]',0.000
'[05:05:18.153 01/05/2000]',0.000
'[05:05:18.157 01/05/2000]',0.001
'[05:05:18.160 01/05/2000]',0.001
'[05:05:18.163 01/05/2000]',0.001
'[05:05:18.167 01/05/2000]',0.000
'[05:05:18.170 01/05/2000]',0.000
'[05:05:18.173 01/05/2000]',0.000
'[05:05:18.177 01/05/2000]',0.001
'[05:05:18.180 01/05/2000]',0.001
'[05:05:18.183 01/05/2000]',0.001
'[05:05:18.187 01/05/2000]',0.000
'[05:05:18.190 01/05/2000]',0.000
'[05:05:18.193 01/05/2000]',-0.001
'[05:05:18.197 01/05/2000]',-0.002
'[05:05:18.200 01/05/2000]',-0.003
'[05:05:18.203 01/05/2000]',-0.004
'[05:05:18.207 01/05/2000]',-0.006
'[05:05:18.210 01/05/2000]',-0.008
'[05:05:18.213 01/05/2000]',-0.009
'[05:05:18.217 01/05/2000]',-0.009
'[05:05:18.220 01/05/2000]',-0.009
'[05:05:18.223 01/05/2000]',-0.010
'[05:05:18.227 01/05/2000]',-0.009
'[05:05:18.230 01/05/2000]',-0.009
'[05:05:18.233 01/05/2000]',-0.007
'[05:05:18.237 01/05/2000]',-0.005
'[05:05:18.240 01/05/2000]',-0.003
'[05:05:18.243 01/05/2000]',-0.001
'[05:05:18.247 01/05/2000]',0.000
'[05:05:18.250 01/05/2000]',0.001
'[05:05:18.253 01/05/2000]',0.002
'[05:05:18.257 01/05/2000]',0.003
'[05:05:18.260 01/05/2000]',0.003
'[05:05:18.263 01/05/2000]',0.004
'[05:05:18.267 01/05/2000]',0.004
'[05:05:18.270 01/05/2000]',0.005
'[05:05:18.273 01/05/2000]',0.006
'[05:05:18.277 01/05/2000]',0.007
'[05:05:18.280 01/05/2000]',0.010
'[05:05:18.283 01/05/2000]',0.012
'[05:05:18.287 01/05/2000]',0.015
'[05:05:18.290 01/05/2000]',0.018
'[05:05:18.293 01/05/2000]',0.022
'[05:05:18.297 01/05/2000]',0.025
'[05:05:18.300 01/05/2000]',0.029
'[05:05:18.303 01/05/2000]',0.031
'[05:05:18.307 01/05/2000]',0.033
'[05:05:18.310 01/05/2000]',0.035
'[05:05:18.313 01/05/2000]',0.036
'[05:05:18.317 01/05/2000]',0.038
'[05:05:18.320 01/05/2000]',0.040
'[05:05:18.323 01/05/2000]',0.043
'[05:05:18.327 01/05/2000]',0.046
'[05:05:18.330 01/05/2000]',0.049
'[05:05:18.333 01/05/2000]',0.053
'[05:05:18.337 01/05/2000]',0.058
'[05:05:18.340 01/05/2000]',0.063
'[05:05:18.343 01/05/2000]',0.067
'[05:05:18.347 01/05/2000]',0.069
'[05:05:18.350 01/05/2000]',0.068
'[05:05:18.353 01/05/2000]',0.064
'[05:05:18.357 01/05/2000]',0.058
'[05:05:18.360 01/05/2000]',0.052
'[05:05:18.363 01/05/2000]',0.046
'[05:05:18.367 01/05/2000]',0.042
'[05:05:18.370 01/05/2000]',0.037
'[05:05:18.373 01/05/2000]',0.031
'[05:05:18.377 01/05/2000]',0.025
'[05:05:18.380 01/05/2000]',0.020
'[05:05:18.383 01/05/2000]',0.015
'[05:05:18.387 01/05/2000]',0.011
'[05:05:18.390 01/05/2000]',0.008
'[05:05:18.393 01/05/2000]',0.004
'[05:05:18.397 01/05/2000]',0.001
'[05:05:18.400 01/05/2000]',-0.003
'[05:05:18.403 01/05/2000]',-0.010
'[05:05:18.407 01/05/2000]',-0.020
'[05:05:18.410 01/05/2000]',-0.026
'[05:05:18.413 01/05/2000]',-0.030
'[05:05:18.417 01/05/2000]',-0.033
'[05:05:18.420 01/05/2000]',-0.037
'[05:05:18.423 01/05/2000]',-0.039
'[05:05:18.427 01/05/2000]',-0.035
'[05:05:18.430 01/05/2000]',-0.023
'[05:05:18.433 01/05/2000]',0.007
'[05:05:18.437 01/05/2000]',0.049
'[05:05:18.440 01/05/2000]',0.107
'[05:05:18.443 01/05/2000]',0.182
'[05:05:18.447 01/05/2000]',0.272
'[05:05:18.450 01/05/2000]',0.378
'[05:05:18.453 01/05/2000]',0.497
'[05:05:18.457 01/05/2000]',0.623
'[05:05:18.460 01/05/2000]',0.744
'[05:05:18.463 01/05/2000]',0.843
'[05:05:18.467 01/05/2000]',0.881
'[05:05:18.470 01/05/2000]',0.872
'[05:05:18.473 01/05/2000]',0.793
'[05:05:18.477 01/05/2000]',0.644
'[05:05:18.480 01/05/2000]',0.457
'[05:05:18.483 01/05/2000]',0.263
'[05:05:18.487 01/05/2000]',0.097
'[05:05:18.490 01/05/2000]',-0.018
'[05:05:18.493 01/05/2000]',-0.073
'[05:05:18.497 01/05/2000]',-0.090
'[05:05:18.500 01/05/2000]',-0.099
'[05:05:18.503 01/05/2000]',-0.104
'[05:05:18.507 01/05/2000]',-0.108
'[05:05:18.510 01/05/2000]',-0.112
'[05:05:18.513 01/05/2000]',-0.115
'[05:05:18.517 01/05/2000]',-0.118
'[05:05:18.520 01/05/2000]',-0.120
'[05:05:18.523 01/05/2000]',-0.122
'[05:05:18.527 01/05/2000]',-0.124
'[05:05:18.530 01/05/2000]',-0.125
'[05:05:18.533 01/05/2000]',-0.126
'[05:05:18.537 01/05/2000]',-0.127
'[05:05:18.540 01/05/2000]',-0.127
'[05:05:18.543 01/05/2000]',-0.129
'[05:05:18.547 01/05/2000]',-0.130
'[05:05:18.550 01/05/2000]',-0.130
'[05:05:18.553 01/05/2000]',-0.131
'[05:05:18.557 01/05/2000]',-0.134
'[05:05:18.560 01/05/2000]',-0.136
'[05:05:18.563 01/05/2000]',-0.135
'[05:05:18.567 01/05/2000]',-0.126
'[05:05:18.570 01/05/2000]',-0.115
'[05:05:18.573 01/05/2000]',-0.108
'[05:05:18.577 01/05/2000]',-0.102
'[05:05:18.580 01/05/2000]',-0.096
'[05:05:18.583 01/05/2000]',-0.092
'[05:05:18.587 01/05/2000]',-0.088
'[05:05:18.590 01/05/2000]',-0.085
'[05:05:18.593 01/05/2000]',-0.083
'[05:05:18.597 01/05/2000]',-0.081
'[05:05:18.600 01/05/2000]',-0.079
'[05:05:18.603 01/05/2000]',-0.078
'[05:05:18.607 01/05/2000]',-0.076
'[05:05:18.610 01/05/2000]',-0.075
'[05:05:18.613 01/05/2000]',-0.073
'[05:05:18.617 01/05/2000]',-0.072
'[05:05:18.620 01/05/2000]',-0.070
'[05:05:18.623 01/05/2000]',-0.068
'[05:05:18.627 01/05/2000]',-0.065
'[05:05:18.630 01/05/2000]',-0.062
'[05:05:18.633 01/05/2000]',-0.057
'[05:05:18.637 01/05/2000]',-0.052
'[05:05:18.640 01/05/2000]',-0.044
'[05:05:18.643 01/05/2000]',-0.032
'[05:05:18.647 01/05/2000]',-0.020
'[05:05:18.650 01/05/2000]',-0.006
'[05:05:18.653 01/05/2000]',0.006
'[05:05:18.657 01/05/2000]',0.020
'[05:05:18.660 01/05/2000]',0.031
'[05:05:18.663 01/05/2000]',0.042
'[05:05:18.667 01/05/2000]',0.053
'[05:05:18.670 01/05/2000]',0.064
'[05:05:18.673 01/05/2000]',0.071
'[05:05:18.677 01/05/2000]',0.075
'[05:05:18.680 01/05/2000]',0.078
'[05:05:18.683 01/05/2000]',0.080
'[05:05:18.687 01/05/2000]',0.082
'[05:05:18.690 01/05/2000]',0.084
'[05:05:18.693 01/05/2000]',0.086
'[05:05:18.697 01/05/2000]',0.086
'[05:05:18.700 01/05/2000]',0.085
'[05:05:18.703 01/05/2000]',0.082
'[05:05:18.707 01/05/2000]',0.077
'[05:05:18.710 01/05/2000]',0.071
'[05:05:18.713 01/05/2000]',0.066
'[05:05:18.717 01/05/2000]',0.060
'[05:05:18.720 01/05/2000]',0.053
'[05:05:18.723 01/05/2000]',0.045
'[05:05:18.727 01/05/2000]',0.035
'[05:05:18.730 01/05/2000]',0.025
'[05:05:18.733 01/05/2000]',0.015
'[05:05:18.737 01/05/2000]',0.007
'[05:05:18.740 01/05/2000]',-0.001
'[05:05:18.743 01/05/2000]',-0.008
'[05:05:18.747 01/05/2000]',-0.014
'[05:05:18.750 01/05/2000]',-0.017
'[05:05:18.753 01/05/2000]',-0.019
'[05:05:18.757 01/05/2000]',-0.020
'[05:05:18.760 01/05/2000]',-0.021
'[05:05:18.763 01/05/2000]',-0.022
'[05:05:18.767 01/05/2000]',-0.023
'[05:05:18.770 01/05/2000]',-0.024
'[05:05:18.773 01/05/2000]',-0.025
'[05:05:18.777 01/05/2000]',-0.027
'[05:05:18.780 01/05/2000]',-0.028
'[05:05:18.783 01/05/2000]',-0.029
'[05:05:18.787 01/05/2000]',-0.030
'[05:05:18.790 01/05/2000]',-0.032
'[05:05:18.793 01/05/2000]',-0.036
'[05:05:18.797 01/05/2000]',-0.037
'[05:05:18.800 01/05/2000]',-0.036
'[05:05:18.803 01/05/2000]',-0.034
'[05:05:18.807 01/05/2000]',-0.033
'[05:05:18.810 01/05/2000]',-0.031
'[05:05:18.813 01/05/2000]',-0.031
'[05:05:18.817 01/05/2000]',-0.031
'[05:05:18.820 01/05/2000]',-0.032
'[05:05:18.823 01/05/2000]',-0.035
'[05:05:18.827 01/05/2000]',-0.037
'[05:05:18.830 01/05/2000]',-0.040
'[05:05:18.833 01/05/2000]',-0.042
'[05:05:18.837 01/05/2000]',-0.047
'[05:05:18.840 01/05/2000]',-0.050
'[05:05:18.843 01/05/2000]',-0.049
'[05:05:18.847 01/05/2000]',-0.044
'[05:05:18.850 01/05/2000]',-0.040
'[05:05:18.853 01/05/2000]',-0.036
'[05:05:18.857 01/05/2000]',-0.031
'[05:05:18.860 01/05/2000]',-0.021
'[05:05:18.863 01/05/2000]',-0.011
'[05:05:18.867 01/05/2000]',-0.004
'[05:05:18.870 01/05/2000]',0.000
'[05:05:18.873 01/05/2000]',0.006
'[05:05:18.877 01/05/2000]',0.011
'[05:05:18.880 01/05/2000]',0.015
'[05:05:18.883 01/05/2000]',0.016
'[05:05:18.887 01/05/2000]',0.015
'[05:05:18.890 01/05/2000]',0.011
'[05:05:18.893 01/05/2000]',0.006
'[05:05:18.897 01/05/2000]',0.002
'[05:05:18.900 01/05/2000]',-0.001
'[05:05:18.903 01/05/2000]',-0.004
'[05:05:18.907 01/05/2000]',-0.008
'[05:05:18.910 01/05/2000]',-0.012
'[05:05:18.913 01/05/2000]',-0.016
'[05:05:18.917 01/05/2000]',-0.019
'[05:05:18.920 01/05/2000]',-0.022
'[05:05:18.923 01/05/2000]',-0.023
'[05:05:18.927 01/05/2000]',-0.023
'[05:05:18.930 01/05/2000]',-0.023
'[05:05:18.933 01/05/2000]',-0.022
'[05:05:18.937 01/05/2000]',-0.021
'[05:05:18.940 01/05/2000]',-0.018
'[05:05:18.943 01/05/2000]',-0.016
'[05:05:18.947 01/05/2000]',-0.013
'[05:05:18.950 01/05/2000]',-0.011
'[05:05:18.953 01/05/2000]',-0.010
'[05:05:18.957 01/05/2000]',-0.009
'[05:05:18.960 01/05/2000]',-0.008
'[05:05:18.963 01/05/2000]',-0.006
'[05:05:18.967 01/05/2000]',-0.004
'[05:05:18.970 01/05/2000]',-0.001
'[05:05:18.973 01/05/2000]',0.000
'[05:05:18.977 01/05/2000]',0.003
'[05:05:18.980 01/05/2000]',0.006
'[05:05:18.983 01/05/2000]',0.008
'[05:05:18.987 01/05/2000]',0.009
'[05:05:18.990 01/05/2000]',0.010
'[05:05:18.993 01/05/2000]',0.009
'[05:05:18.997 01/05/2000]',0.009
'[05:05:19.000 01/05/2000]',0.008
'[05:05:19.003 01/05/2000]',0.007
'[05:05:19.007 01/05/2000]',0.006
'[05:05:19.010 01/05/2000]',0.004
'[05:05:19.013 01/05/2000]',0.002
'[05:05:19.017 01/05/2000]',0.000
'[05:05:19.020 01/05/2000]',0.000
'[05:05:19.023 01/05/2000]',-0.001
'[05:05:19.027 01/05/2000]',-0.001
'[05:05:19.030 01/05/2000]',-0.001
'[05:05:19.033 01/05/2000]',-0.004
'[05:05:19.037 01/05/2000]',-0.007
'[05:05:19.040 01/05/2000]',-0.010
'[05:05:19.043 01/05/2000]',-0.010
'[05:05:19.047 01/05/2000]',-0.006
'[05:05:19.050 01/05/2000]',0.000
'[05:05:19.053 01/05/2000]',0.006
'[05:05:19.057 01/05/2000]',0.011
'[05:05:19.060 01/05/2000]',0.015
'[05:05:19.063 01/05/2000]',0.020
'[05:05:19.067 01/05/2000]',0.025
'[05:05:19.070 01/05/2000]',0.029
'[05:05:19.073 01/05/2000]',0.032
'[05:05:19.077 01/05/2000]',0.035
'[05:05:19.080 01/05/2000]',0.038
'[05:05:19.083 01/05/2000]',0.040
'[05:05:19.087 01/05/2000]',0.043
'[05:05:19.090 01/05/2000]',0.046
'[05:05:19.093 01/05/2000]',0.049
'[05:05:19.097 01/05/2000]',0.052
'[05:05:19.100 01/05/2000]',0.054
'[05:05:19.103 01/05/2000]',0.056
'[05:05:19.107 01/05/2000]',0.058
'[05:05:19.110 01/05/2000]',0.060
'[05:05:19.113 01/05/2000]',0.062
'[05:05:19.117 01/05/2000]',0.064
'[05:05:19.120 01/05/2000]',0.066
'[05:05:19.123 01/05/2000]',0.068
'[05:05:19.127 01/05/2000]',0.070
'[05:05:19.130 01/05/2000]',0.071
'[05:05:19.133 01/05/2000]',0.070
'[05:05:19.137 01/05/2000]',0.067
'[05:05:19.140 01/05/2000]',0.062
'[05:05:19.143 01/05/2000]',0.057
'[05:05:19.147 01/05/2000]',0.052
'[05:05:19.150 01/05/2000]',0.049
'[05:05:19.153 01/05/2000]',0.045
'[05:05:19.157 01/05/2000]',0.041
'[05:05:19.160 01/05/2000]',0.037
'[05:05:19.163 01/05/2000]',0.033
'[05:05:19.167 01/05/2000]',0.030
'[05:05:19.170 01/05/2000]',0.028
'[05:05:19.173 01/05/2000]',0.026
'[05:05:19.177 01/05/2000]',0.025
'[05:05:19.180 01/05/2000]',0.025
'[05:05:19.183 01/05/2000]',0.025
'[05:05:19.187 01/05/2000]',0.026
'[05:05:19.190 01/05/2000]',0.028
'[05:05:19.193 01/05/2000]',0.030
'[05:05:19.197 01/05/2000]',0.034
'[05:05:19.200 01/05/2000]',0.038
'[05:05:19.203 01/05/2000]',0.043
'[05:05:19.207 01/05/2000]',0.062
'[05:05:19.210 01/05/2000]',0.106
'[05:05:19.213 01/05/2000]',0.169
'[05:05:19.217 01/05/2000]',0.253
'[05:05:19.220 01/05/2000]',0.359
'[05:05:19.223 01/05/2000]',0.479
'[05:05:19.227 01/05/2000]',0.595
'[05:05:19.230 01/05/2000]',0.694
'[05:05:19.233 01/05/2000]',0.764
'[05:05:19.237 01/05/2000]',0.790
'[05:05:19.240 01/05/2000]',0.787
'[05:05:19.243 01/05/2000]',0.742
'[05:05:19.247 01/05/2000]',0.635
'[05:05:19.250 01/05/2000]',0.474
'[05:05:19.253 01/05/2000]',0.288
'[05:05:19.257 01/05/2000]',0.115
'[05:05:19.260 01/05/2000]',-0.004
'[05:05:19.263 01/05/2000]',-0.042
'[05:05:19.267 01/05/2000]',-0.052
'[05:05:19.270 01/05/2000]',-0.059
'[05:05:19.273 01/05/2000]',-0.063
'[05:05:19.277 01/05/2000]',-0.068
'[05:05:19.280 01/05/2000]',-0.072
'[05:05:19.283 01/05/2000]',-0.076
'[05:05:19.287 01/05/2000]',-0.080
'[05:05:19.290 01/05/2000]',-0.083
'[05:05:19.293 01/05/2000]',-0.086
'[05:05:19.297 01/05/2000]',-0.089
'[05:05:19.300 01/05/2000]',-0.092
'[05:05:19.303 01/05/2000]',-0.095
'[05:05:19.307 01/05/2000]',-0.097
'[05:05:19.310 01/05/2000]',-0.099
'[05:05:19.313 01/05/2000]',-0.102
'[05:05:19.317 01/05/2000]',-0.103
'[05:05:19.320 01/05/2000]',-0.104
'[05:05:19.323 01/05/2000]',-0.103
'[05:05:19.327 01/05/2000]',-0.102
'[05:05:19.330 01/05/2000]',-0.100
'[05:05:19.333 01/05/2000]',-0.097
'[05:05:19.337 01/05/2000]',-0.094
'[05:05:19.340 01/05/2000]',-0.090
'[05:05:19.343 01/05/2000]',-0.086
'[05:05:19.347 01/05/2000]',-0.081
'[05:05:19.350 01/05/2000]',-0.071
'[05:05:19.353 01/05/2000]',-0.064
'[05:05:19.357 01/05/2000]',-0.059
'[05:05:19.360 01/05/2000]',-0.056
'[05:05:19.363 01/05/2000]',-0.055
'[05:05:19.367 01/05/2000]',-0.055
'[05:05:19.370 01/05/2000]',-0.054
'[05:05:19.373 01/05/2000]',-0.053
'[05:05:19.377 01/05/2000]',-0.052
'[05:05:19.380 01/05/2000]',-0.050
'[05:05:19.383 01/05/2000]',-0.048
'[05:05:19.387 01/05/2000]',-0.047
'[05:05:19.390 01/05/2000]',-0.046
'[05:05:19.393 01/05/2000]',-0.045
'[05:05:19.397 01/05/2000]',-0.043
'[05:05:19.400 01/05/2000]',-0.041
'[05:05:19.403 01/05/2000]',-0.038
'[05:05:19.407 01/05/2000]',-0.034
'[05:05:19.410 01/05/2000]',-0.025
'[05:05:19.413 01/05/2000]',-0.007
'[05:05:19.417 01/05/2000]',0.001
'[05:05:19.420 01/05/2000]',0.007
'[05:05:19.423 01/05/2000]',0.014
'[05:05:19.427 01/05/2000]',0.021
'[05:05:19.430 01/05/2000]',0.029
'[05:05:19.433 01/05/2000]',0.042
'[05:05:19.437 01/05/2000]',0.060
'[05:05:19.440 01/05/2000]',0.069
'[05:05:19.443 01/05/2000]',0.075
'[05:05:19.447 01/05/2000]',0.079
'[05:05:19.450 01/05/2000]',0.081
'[05:05:19.453 01/05/2000]',0.082
'[05:05:19.457 01/05/2000]',0.080
'[05:05:19.460 01/05/2000]',0.076
'[05:05:19.463 01/05/2000]',0.071
'[05:05:19.467 01/05/2000]',0.067
'[05:05:19.470 01/05/2000]',0.064
'[05:05:19.473 01/05/2000]',0.060
'[05:05:19.477 01/05/2000]',0.057
'[05:05:19.480 01/05/2000]',0.054
'[05:05:19.483 01/05/2000]',0.051
'[05:05:19.487 01/05/2000]',0.049
'[05:05:19.490 01/05/2000]',0.046
'[05:05:19.493 01/05/2000]',0.044
'[05:05:19.497 01/05/2000]',0.041
'[05:05:19.500 01/05/2000]',0.038
'[05:05:19.503 01/05/2000]',0.035
'[05:05:19.507 01/05/2000]',0.032
'[05:05:19.510 01/05/2000]',0.028
'[05:05:19.513 01/05/2000]',0.022
'[05:05:19.517 01/05/2000]',0.015
'[05:05:19.520 01/05/2000]',0.010
'[05:05:19.523 01/05/2000]',0.005
'[05:05:19.527 01/05/2000]',0.001
'[05:05:19.530 01/05/2000]',-0.002
'[05:05:19.533 01/05/2000]',-0.006
'[05:05:19.537 01/05/2000]',-0.009
'[05:05:19.540 01/05/2000]',-0.011
'[05:05:19.543 01/05/2000]',-0.012
'[05:05:19.547 01/05/2000]',-0.013
'[05:05:19.550 01/05/2000]',-0.013
'[05:05:19.553 01/05/2000]',-0.013
'[05:05:19.557 01/05/2000]',-0.014
'[05:05:19.560 01/05/2000]',-0.015
'[05:05:19.563 01/05/2000]',-0.016
'[05:05:19.567 01/05/2000]',-0.017
'[05:05:19.570 01/05/2000]',-0.018
'[05:05:19.573 01/05/2000]',-0.019
'[05:05:19.577 01/05/2000]',-0.020
'[05:05:19.580 01/05/2000]',-0.023
'[05:05:19.583 01/05/2000]',-0.023
'[05:05:19.587 01/05/2000]',-0.019
'[05:05:19.590 01/05/2000]',-0.017
'[05:05:19.593 01/05/2000]',-0.016
'[05:05:19.597 01/05/2000]',-0.016
'[05:05:19.600 01/05/2000]',-0.015
'[05:05:19.603 01/05/2000]',-0.015
'[05:05:19.607 01/05/2000]',-0.015
'[05:05:19.610 01/05/2000]',-0.015
'[05:05:19.613 01/05/2000]',-0.015
'[05:05:19.617 01/05/2000]',-0.014
'[05:05:19.620 01/05/2000]',-0.013
'[05:05:19.623 01/05/2000]',-0.013
'[05:05:19.627 01/05/2000]',-0.012
'[05:05:19.630 01/05/2000]',-0.012
'[05:05:19.633 01/05/2000]',-0.011
'[05:05:19.637 01/05/2000]',-0.010
'[05:05:19.640 01/05/2000]',-0.009
'[05:05:19.643 01/05/2000]',-0.008
'[05:05:19.647 01/05/2000]',-0.006
'[05:05:19.650 01/05/2000]',-0.006
'[05:05:19.653 01/05/2000]',-0.005
'[05:05:19.657 01/05/2000]',-0.004
'[05:05:19.660 01/05/2000]',-0.002
'[05:05:19.663 01/05/2000]',0.002
'[05:05:19.667 01/05/2000]',0.006
'[05:05:19.670 01/05/2000]',0.008
'[05:05:19.673 01/05/2000]',0.006
'[05:05:19.677 01/05/2000]',0.001
'[05:05:19.680 01/05/2000]',-0.003
'[05:05:19.683 01/05/2000]',-0.006
'[05:05:19.687 01/05/2000]',-0.008
'[05:05:19.690 01/05/2000]',-0.011
'[05:05:19.693 01/05/2000]',-0.013
'[05:05:19.697 01/05/2000]',-0.015
'[05:05:19.700 01/05/2000]',-0.017
'[05:05:19.703 01/05/2000]',-0.017
'[05:05:19.707 01/05/2000]',-0.016
'[05:05:19.710 01/05/2000]',-0.014
'[05:05:19.713 01/05/2000]',-0.012
'[05:05:19.717 01/05/2000]',-0.010
'[05:05:19.720 01/05/2000]',-0.007
'[05:05:19.723 01/05/2000]',-0.002
'[05:05:19.727 01/05/2000]',0.000
'[05:05:19.730 01/05/2000]',0.000
'[05:05:19.733 01/05/2000]',-0.003
'[05:05:19.737 01/05/2000]',-0.006
'[05:05:19.740 01/05/2000]',-0.009
'[05:05:19.743 01/05/2000]',-0.008
'[05:05:19.747 01/05/2000]',-0.003
'[05:05:19.750 01/05/2000]',-0.001
'[05:05:19.753 01/05/2000]',0.000
'[05:05:19.757 01/05/2000]',0.001
'[05:05:19.760 01/05/2000]',0.002
'[05:05:19.763 01/05/2000]',0.002
'[05:05:19.767 01/05/2000]',0.003
'[05:05:19.770 01/05/2000]',0.003
'[05:05:19.773 01/05/2000]',0.004
'[05:05:19.777 01/05/2000]',0.004
'[05:05:19.780 01/05/2000]',0.004
'[05:05:19.783 01/05/2000]',0.004
'[05:05:19.787 01/05/2000]',0.004
'[05:05:19.790 01/05/2000]',0.003
'[05:05:19.793 01/05/2000]',0.003
'[05:05:19.797 01/05/2000]',0.003
'[05:05:19.800 01/05/2000]',0.003
'[05:05:19.803 01/05/2000]',0.002
'[05:05:19.807 01/05/2000]',0.001
'[05:05:19.810 01/05/2000]',0.000
'[05:05:19.813 01/05/2000]',0.000
'[05:05:19.817 01/05/2000]',0.000
'[05:05:19.820 01/05/2000]',0.000
'[05:05:19.823 01/05/2000]',-0.001
'[05:05:19.827 01/05/2000]',-0.001
'[05:05:19.830 01/05/2000]',0.001
'[05:05:19.833 01/05/2000]',0.003
'[05:05:19.837 01/05/2000]',0.004
'[05:05:19.840 01/05/2000]',0.006
'[05:05:19.843 01/05/2000]',0.007
'[05:05:19.847 01/05/2000]',0.010
'[05:05:19.850 01/05/2000]',0.013
'[05:05:19.853 01/05/2000]',0.017
'[05:05:19.857 01/05/2000]',0.021
'[05:05:19.860 01/05/2000]',0.026
'[05:05:19.863 01/05/2000]',0.030
'[05:05:19.867 01/05/2000]',0.034
'[05:05:19.870 01/05/2000]',0.036
'[05:05:19.873 01/05/2000]',0.038
'[05:05:19.877 01/05/2000]',0.040
'[05:05:19.880 01/05/2000]',0.042
'[05:05:19.883 01/05/2000]',0.044
'[05:05:19.887 01/05/2000]',0.047
'[05:05:19.890 01/05/2000]',0.049
'[05:05:19.893 01/05/2000]',0.051
'[05:05:19.897 01/05/2000]',0.053
'[05:05:19.900 01/05/2000]',0.056
'[05:05:19.903 01/05/2000]',0.062
'[05:05:19.907 01/05/2000]',0.074
'[05:05:19.910 01/05/2000]',0.080
'[05:05:19.913 01/05/2000]',0.084
'[05:05:19.917 01/05/2000]',0.086
'[05:05:19.920 01/05/2000]',0.088
'[05:05:19.923 01/05/2000]',0.087
'[05:05:19.927 01/05/2000]',0.086
'[05:05:19.930 01/05/2000]',0.082
'[05:05:19.933 01/05/2000]',0.077
'[05:05:19.937 01/05/2000]',0.059
'[05:05:19.940 01/05/2000]',0.034
'[05:05:19.943 01/05/2000]',0.020
'[05:05:19.947 01/05/2000]',0.012
'[05:05:19.950 01/05/2000]',0.007
'[05:05:19.953 01/05/2000]',0.002
'[05:05:19.957 01/05/2000]',-0.001
'[05:05:19.960 01/05/2000]',-0.005
'[05:05:19.963 01/05/2000]',-0.010
'[05:05:19.967 01/05/2000]',-0.016
'[05:05:19.970 01/05/2000]',-0.016
'[05:05:19.973 01/05/2000]',-0.009
'[05:05:19.977 01/05/2000]',-0.003
'[05:05:19.980 01/05/2000]',0.000
'[05:05:19.983 01/05/2000]',0.002
'[05:05:19.987 01/05/2000]',0.006
'[05:05:19.990 01/05/2000]',0.009
'[05:05:19.993 01/05/2000]',0.012
'[05:05:19.997 01/05/2000]',0.017
'[05:05:20.000 01/05/2000]',0.036
'[05:05:20.003 01/05/2000]',0.066
'[05:05:20.007 01/05/2000]',0.115
'[05:05:20.010 01/05/2000]',0.188
'[05:05:20.013 01/05/2000]',0.290
'[05:05:20.017 01/05/2000]',0.414
'[05:05:20.020 01/05/2000]',0.549
'[05:05:20.023 01/05/2000]',0.685
'[05:05:20.027 01/05/2000]',0.807
'[05:05:20.030 01/05/2000]',0.897
'[05:05:20.033 01/05/2000]',0.933
'[05:05:20.037 01/05/2000]',0.901
'[05:05:20.040 01/05/2000]',0.798
'[05:05:20.043 01/05/2000]',0.636
'[05:05:20.047 01/05/2000]',0.441
'[05:05:20.050 01/05/2000]',0.247
'[05:05:20.053 01/05/2000]',0.088
'[05:05:20.057 01/05/2000]',-0.021
'[05:05:20.060 01/05/2000]',-0.069
'[05:05:20.063 01/05/2000]',-0.087
'[05:05:20.067 01/05/2000]',-0.095
'[05:05:20.070 01/05/2000]',-0.103
'[05:05:20.073 01/05/2000]',-0.117
'[05:05:20.077 01/05/2000]',-0.131
'[05:05:20.080 01/05/2000]',-0.139
'[05:05:20.083 01/05/2000]',-0.130
'[05:05:20.087 01/05/2000]',-0.115
'[05:05:20.090 01/05/2000]',-0.103
'[05:05:20.093 01/05/2000]',-0.096
'[05:05:20.097 01/05/2000]',-0.091
'[05:05:20.100 01/05/2000]',-0.097
'[05:05:20.103 01/05/2000]',-0.103
'[05:05:20.107 01/05/2000]',-0.107
'[05:05:20.110 01/05/2000]',-0.110
'[05:05:20.113 01/05/2000]',-0.112
'[05:05:20.117 01/05/2000]',-0.110
'[05:05:20.120 01/05/2000]',-0.107
'[05:05:20.123 01/05/2000]',-0.103
'[05:05:20.127 01/05/2000]',-0.099
'[05:05:20.130 01/05/2000]',-0.095
'[05:05:20.133 01/05/2000]',-0.092
'[05:05:20.137 01/05/2000]',-0.092
'[05:05:20.140 01/05/2000]',-0.093
'[05:05:20.143 01/05/2000]',-0.096
'[05:05:20.147 01/05/2000]',-0.099
'[05:05:20.150 01/05/2000]',-0.102
'[05:05:20.153 01/05/2000]',-0.091
'[05:05:20.157 01/05/2000]',-0.081
'[05:05:20.160 01/05/2000]',-0.075
'[05:05:20.163 01/05/2000]',-0.071
'[05:05:20.167 01/05/2000]',-0.068
'[05:05:20.170 01/05/2000]',-0.067
'[05:05:20.173 01/05/2000]',-0.066
'[05:05:20.177 01/05/2000]',-0.065
'[05:05:20.180 01/05/2000]',-0.064
'[05:05:20.183 01/05/2000]',-0.063
'[05:05:20.187 01/05/2000]',-0.061
'[05:05:20.190 01/05/2000]',-0.060
'[05:05:20.193 01/05/2000]',-0.057
'[05:05:20.197 01/05/2000]',-0.053
'[05:05:20.200 01/05/2000]',-0.047
'[05:05:20.203 01/05/2000]',-0.035
'[05:05:20.207 01/05/2000]',-0.018
'[05:05:20.210 01/05/2000]',-0.003
'[05:05:20.213 01/05/2000]',0.010
'[05:05:20.217 01/05/2000]',0.018
'[05:05:20.220 01/05/2000]',0.022
'[05:05:20.223 01/05/2000]',0.026
'[05:05:20.227 01/05/2000]',0.033
'[05:05:20.230 01/05/2000]',0.040
'[05:05:20.233 01/05/2000]',0.047
'[05:05:20.237 01/05/2000]',0.052
'[05:05:20.240 01/05/2000]',0.057
'[05:05:20.243 01/05/2000]',0.061
'[05:05:20.247 01/05/2000]',0.064
'[05:05:20.250 01/05/2000]',0.067
'[05:05:20.253 01/05/2000]',0.072
'[05:05:20.257 01/05/2000]',0.078
'[05:05:20.260 01/05/2000]',0.079
'[05:05:20.263 01/05/2000]',0.080
'[05:05:20.267 01/05/2000]',0.081
'[05:05:20.270 01/05/2000]',0.081
'[05:05:20.273 01/05/2000]',0.082
'[05:05:20.277 01/05/2000]',0.079
'[05:05:20.280 01/05/2000]',0.074
'[05:05:20.283 01/05/2000]',0.068
'[05:05:20.287 01/05/2000]',0.061
'[05:05:20.290 01/05/2000]',0.052
'[05:05:20.293 01/05/2000]',0.042
'[05:05:20.297 01/05/2000]',0.033
'[05:05:20.300 01/05/2000]',0.023
'[05:05:20.303 01/05/2000]',0.015
'[05:05:20.307 01/05/2000]',0.009
'[05:05:20.310 01/05/2000]',0.005
'[05:05:20.313 01/05/2000]',0.001
'[05:05:20.317 01/05/2000]',-0.001
'[05:05:20.320 01/05/2000]',-0.006
'[05:05:20.323 01/05/2000]',-0.011
'[05:05:20.327 01/05/2000]',-0.016
'[05:05:20.330 01/05/2000]',-0.020
'[05:05:20.333 01/05/2000]',-0.022
'[05:05:20.337 01/05/2000]',-0.024
'[05:05:20.340 01/05/2000]',-0.025
'[05:05:20.343 01/05/2000]',-0.026
'[05:05:20.347 01/05/2000]',-0.027
'[05:05:20.350 01/05/2000]',-0.027
'[05:05:20.353 01/05/2000]',-0.028
'[05:05:20.357 01/05/2000]',-0.028
'[05:05:20.360 01/05/2000]',-0.029
'[05:05:20.363 01/05/2000]',-0.030
'[05:05:20.367 01/05/2000]',-0.031
'[05:05:20.370 01/05/2000]',-0.031
'[05:05:20.373 01/05/2000]',-0.031
'[05:05:20.377 01/05/2000]',-0.030
'[05:05:20.380 01/05/2000]',-0.029
'[05:05:20.383 01/05/2000]',-0.028
'[05:05:20.387 01/05/2000]',-0.027
'[05:05:20.390 01/05/2000]',-0.027
'[05:05:20.393 01/05/2000]',-0.025
'[05:05:20.397 01/05/2000]',-0.025
'[05:05:20.400 01/05/2000]',-0.025
'[05:05:20.403 01/05/2000]',-0.026
'[05:05:20.407 01/05/2000]',-0.028
'[05:05:20.410 01/05/2000]',-0.030
'[05:05:20.413 01/05/2000]',-0.033
'[05:05:20.417 01/05/2000]',-0.035
'[05:05:20.420 01/05/2000]',-0.031
'[05:05:20.423 01/05/2000]',-0.025
'[05:05:20.427 01/05/2000]',-0.022
'[05:05:20.430 01/05/2000]',-0.020
'[05:05:20.433 01/05/2000]',-0.019
'[05:05:20.437 01/05/2000]',-0.017
'[05:05:20.440 01/05/2000]',-0.015
'[05:05:20.443 01/05/2000]',-0.013
'[05:05:20.447 01/05/2000]',-0.010
'[05:05:20.450 01/05/2000]',-0.008
'[05:05:20.453 01/05/2000]',-0.006
'[05:05:20.457 01/05/2000]',-0.004
'[05:05:20.460 01/05/2000]',-0.003
'[05:05:20.463 01/05/2000]',-0.001
'[05:05:20.467 01/05/2000]',0.000
'[05:05:20.470 01/05/2000]',0.001
'[05:05:20.473 01/05/2000]',0.003
'[05:05:20.477 01/05/2000]',0.005
'[05:05:20.480 01/05/2000]',0.008
'[05:05:20.483 01/05/2000]',0.010
'[05:05:20.487 01/05/2000]',0.012
'[05:05:20.490 01/05/2000]',0.013
'[05:05:20.493 01/05/2000]',0.012
'[05:05:20.497 01/05/2000]',0.010
'[05:05:20.500 01/05/2000]',0.008
'[05:05:20.503 01/05/2000]',0.006
'[05:05:20.507 01/05/2000]',0.004
'[05:05:20.510 01/05/2000]',0.002
'[05:05:20.513 01/05/2000]',0.000
'[05:05:20.517 01/05/2000]',-0.001
'[05:05:20.520 01/05/2000]',-0.003
'[05:05:20.523 01/05/2000]',-0.005
'[05:05:20.527 01/05/2000]',-0.007
'[05:05:20.530 01/05/2000]',-0.007
'[05:05:20.533 01/05/2000]',-0.008
'[05:05:20.537 01/05/2000]',-0.007
'[05:05:20.540 01/05/2000]',-0.007
'[05:05:20.543 01/05/2000]',-0.006
'[05:05:20.547 01/05/2000]',-0.004
'[05:05:20.550 01/05/2000]',-0.003
'[05:05:20.553 01/05/2000]',-0.001
'[05:05:20.557 01/05/2000]',0.000
'[05:05:20.560 01/05/2000]',0.001
'[05:05:20.563 01/05/2000]',0.003
'[05:05:20.567 01/05/2000]',0.005
'[05:05:20.570 01/05/2000]',0.008
'[05:05:20.573 01/05/2000]',0.011
'[05:05:20.577 01/05/2000]',0.014
'[05:05:20.580 01/05/2000]',0.018
'[05:05:20.583 01/05/2000]',0.022
'[05:05:20.587 01/05/2000]',0.026
'[05:05:20.590 01/05/2000]',0.027
'[05:05:20.593 01/05/2000]',0.026
'[05:05:20.597 01/05/2000]',0.023
'[05:05:20.600 01/05/2000]',0.019
'[05:05:20.603 01/05/2000]',0.013
'[05:05:20.607 01/05/2000]',0.005
'[05:05:20.610 01/05/2000]',0.000
'[05:05:20.613 01/05/2000]',-0.004
'[05:05:20.617 01/05/2000]',-0.008
'[05:05:20.620 01/05/2000]',-0.010
'[05:05:20.623 01/05/2000]',-0.005
'[05:05:20.627 01/05/2000]',0.003
'[05:05:20.630 01/05/2000]',0.007
'[05:05:20.633 01/05/2000]',0.010
'[05:05:20.637 01/05/2000]',0.012
'[05:05:20.640 01/05/2000]',0.014
'[05:05:20.643 01/05/2000]',0.016
'[05:05:20.647 01/05/2000]',0.018
'[05:05:20.650 01/05/2000]',0.021
'[05:05:20.653 01/05/2000]',0.023
'[05:05:20.657 01/05/2000]',0.025
'[05:05:20.660 01/05/2000]',0.027
'[05:05:20.663 01/05/2000]',0.028
'[05:05:20.667 01/05/2000]',0.030
'[05:05:20.670 01/05/2000]',0.032
'[05:05:20.673 01/05/2000]',0.033
'[05:05:20.677 01/05/2000]',0.035
'[05:05:20.680 01/05/2000]',0.036
'[05:05:20.683 01/05/2000]',0.039
'[05:05:20.687 01/05/2000]',0.043
'[05:05:20.690 01/05/2000]',0.047
'[05:05:20.693 01/05/2000]',0.050
'[05:05:20.697 01/05/2000]',0.053
'[05:05:20.700 01/05/2000]',0.056
'[05:05:20.703 01/05/2000]',0.058
'[05:05:20.707 01/05/2000]',0.061
'[05:05:20.710 01/05/2000]',0.064
'[05:05:20.713 01/05/2000]',0.068
'[05:05:20.717 01/05/2000]',0.070
'[05:05:20.720 01/05/2000]',0.072
'[05:05:20.723 01/05/2000]',0.074
'[05:05:20.727 01/05/2000]',0.077
'[05:05:20.730 01/05/2000]',0.081
'[05:05:20.733 01/05/2000]',0.086
'[05:05:20.737 01/05/2000]',0.086
'[05:05:20.740 01/05/2000]',0.076
'[05:05:20.743 01/05/2000]',0.061
'[05:05:20.747 01/05/2000]',0.043
'[05:05:20.750 01/05/2000]',0.034
'[05:05:20.753 01/05/2000]',0.030
'[05:05:20.757 01/05/2000]',0.027
'[05:05:20.760 01/05/2000]',0.024
'[05:05:20.763 01/05/2000]',0.021
'[05:05:20.767 01/05/2000]',0.018
'[05:05:20.770 01/05/2000]',0.015
'[05:05:20.773 01/05/2000]',0.011
'[05:05:20.777 01/05/2000]',0.005
'[05:05:20.780 01/05/2000]',-0.001
'[05:05:20.783 01/05/2000]',-0.007
'[05:05:20.787 01/05/2000]',-0.012
'[05:05:20.790 01/05/2000]',-0.016
'[05:05:20.793 01/05/2000]',-0.020
'[05:05:20.797 01/05/2000]',-0.023
'[05:05:20.800 01/05/2000]',-0.021
'[05:05:20.803 01/05/2000]',-0.016
'[05:05:20.807 01/05/2000]',-0.001
'[05:05:20.810 01/05/2000]',0.019
'[05:05:20.813 01/05/2000]',0.046
'[05:05:20.817 01/05/2000]',0.080
'[05:05:20.820 01/05/2000]',0.129
'[05:05:20.823 01/05/2000]',0.199
'[05:05:20.827 01/05/2000]',0.296
'[05:05:20.830 01/05/2000]',0.415
'[05:05:20.833 01/05/2000]',0.549
'[05:05:20.837 01/05/2000]',0.683
'[05:05:20.840 01/05/2000]',0.803
'[05:05:20.843 01/05/2000]',0.889
'[05:05:20.847 01/05/2000]',0.925
'[05:05:20.850 01/05/2000]',0.899
'[05:05:20.853 01/05/2000]',0.803
'[05:05:20.857 01/05/2000]',0.645
'[05:05:20.860 01/05/2000]',0.453
'[05:05:20.863 01/05/2000]',0.262
'[05:05:20.867 01/05/2000]',0.103
'[05:05:20.870 01/05/2000]',-0.004
'[05:05:20.873 01/05/2000]',-0.062
'[05:05:20.877 01/05/2000]',-0.086
'[05:05:20.880 01/05/2000]',-0.102
'[05:05:20.883 01/05/2000]',-0.119
'[05:05:20.887 01/05/2000]',-0.135
'[05:05:20.890 01/05/2000]',-0.145
'[05:05:20.893 01/05/2000]',-0.151
'[05:05:20.897 01/05/2000]',-0.151
'[05:05:20.900 01/05/2000]',-0.143
'[05:05:20.903 01/05/2000]',-0.131
'[05:05:20.907 01/05/2000]',-0.118
'[05:05:20.910 01/05/2000]',-0.111
'[05:05:20.913 01/05/2000]',-0.107
'[05:05:20.917 01/05/2000]',-0.104
'[05:05:20.920 01/05/2000]',-0.102
'[05:05:20.923 01/05/2000]',-0.101
'[05:05:20.927 01/05/2000]',-0.100
'[05:05:20.930 01/05/2000]',-0.099
'[05:05:20.933 01/05/2000]',-0.097
'[05:05:20.937 01/05/2000]',-0.096
'[05:05:20.940 01/05/2000]',-0.096
'[05:05:20.943 01/05/2000]',-0.096
'[05:05:20.947 01/05/2000]',-0.096
'[05:05:20.950 01/05/2000]',-0.097
'[05:05:20.953 01/05/2000]',-0.098
'[05:05:20.957 01/05/2000]',-0.099
'[05:05:20.960 01/05/2000]',-0.100
'[05:05:20.963 01/05/2000]',-0.101
'[05:05:20.967 01/05/2000]',-0.102
'[05:05:20.970 01/05/2000]',-0.103
'[05:05:20.973 01/05/2000]',-0.104
'[05:05:20.977 01/05/2000]',-0.102
'[05:05:20.980 01/05/2000]',-0.099
'[05:05:20.983 01/05/2000]',-0.095
'[05:05:20.987 01/05/2000]',-0.089
'[05:05:20.990 01/05/2000]',-0.080
'[05:05:20.993 01/05/2000]',-0.069
'[05:05:20.997 01/05/2000]',-0.054
'[05:05:21.000 01/05/2000]',-0.040
'[05:05:21.003 01/05/2000]',-0.034
'[05:05:21.007 01/05/2000]',-0.030
'[05:05:21.010 01/05/2000]',-0.028
'[05:05:21.013 01/05/2000]',-0.024
'[05:05:21.017 01/05/2000]',-0.020
'[05:05:21.020 01/05/2000]',-0.016
'[05:05:21.023 01/05/2000]',-0.011
'[05:05:21.027 01/05/2000]',-0.006
'[05:05:21.030 01/05/2000]',0.000
'[05:05:21.033 01/05/2000]',0.003
'[05:05:21.037 01/05/2000]',0.008
'[05:05:21.040 01/05/2000]',0.026
'[05:05:21.043 01/05/2000]',0.050
'[05:05:21.047 01/05/2000]',0.063
'[05:05:21.050 01/05/2000]',0.071
'[05:05:21.053 01/05/2000]',0.076
'[05:05:21.057 01/05/2000]',0.081
'[05:05:21.060 01/05/2000]',0.084
'[05:05:21.063 01/05/2000]',0.087
'[05:05:21.067 01/05/2000]',0.091
'[05:05:21.070 01/05/2000]',0.096
'[05:05:21.073 01/05/2000]',0.095
'[05:05:21.077 01/05/2000]',0.087
'[05:05:21.080 01/05/2000]',0.082
'[05:05:21.083 01/05/2000]',0.079
'[05:05:21.087 01/05/2000]',0.075
'[05:05:21.090 01/05/2000]',0.071
'[05:05:21.093 01/05/2000]',0.067
'[05:05:21.097 01/05/2000]',0.063
'[05:05:21.100 01/05/2000]',0.057
'[05:05:21.103 01/05/2000]',0.046
'[05:05:21.107 01/05/2000]',0.029
'[05:05:21.110 01/05/2000]',0.016
'[05:05:21.113 01/05/2000]',0.007
'[05:05:21.117 01/05/2000]',-0.002
'[05:05:21.120 01/05/2000]',-0.011
'[05:05:21.123 01/05/2000]',-0.020
'[05:05:21.127 01/05/2000]',-0.027
'[05:05:21.130 01/05/2000]',-0.029
'[05:05:21.133 01/05/2000]',-0.031
'[05:05:21.137 01/05/2000]',-0.032
'[05:05:21.140 01/05/2000]',-0.033
'[05:05:21.143 01/05/2000]',-0.033
'[05:05:21.147 01/05/2000]',-0.034
'[05:05:21.150 01/05/2000]',-0.034
'[05:05:21.153 01/05/2000]',-0.034
'[05:05:21.157 01/05/2000]',-0.034
'[05:05:21.160 01/05/2000]',-0.034
'[05:05:21.163 01/05/2000]',-0.035
'[05:05:21.167 01/05/2000]',-0.035
'[05:05:21.170 01/05/2000]',-0.035
'[05:05:21.173 01/05/2000]',-0.035
'[05:05:21.177 01/05/2000]',-0.034
'[05:05:21.180 01/05/2000]',-0.034
'[05:05:21.183 01/05/2000]',-0.035
'[05:05:21.187 01/05/2000]',-0.036
'[05:05:21.190 01/05/2000]',-0.037
'[05:05:21.193 01/05/2000]',-0.037
'[05:05:21.197 01/05/2000]',-0.037
'[05:05:21.200 01/05/2000]',-0.037
'[05:05:21.203 01/05/2000]',-0.038
'[05:05:21.207 01/05/2000]',-0.039
'[05:05:21.210 01/05/2000]',-0.041
'[05:05:21.213 01/05/2000]',-0.042
'[05:05:21.217 01/05/2000]',-0.044
'[05:05:21.220 01/05/2000]',-0.045
'[05:05:21.223 01/05/2000]',-0.047
'[05:05:21.227 01/05/2000]',-0.050
'[05:05:21.230 01/05/2000]',-0.052
'[05:05:21.233 01/05/2000]',-0.055
'[05:05:21.237 01/05/2000]',-0.056
'[05:05:21.240 01/05/2000]',-0.055
'[05:05:21.243 01/05/2000]',-0.052
'[05:05:21.247 01/05/2000]',-0.049
'[05:05:21.250 01/05/2000]',-0.046
'[05:05:21.253 01/05/2000]',-0.043
'[05:05:21.257 01/05/2000]',-0.040
'[05:05:21.260 01/05/2000]',-0.036
'[05:05:21.263 01/05/2000]',-0.031
'[05:05:21.267 01/05/2000]',-0.026
'[05:05:21.270 01/05/2000]',-0.020
'[05:05:21.273 01/05/2000]',-0.015
'[05:05:21.277 01/05/2000]',-0.011
'[05:05:21.280 01/05/2000]',-0.008
'[05:05:21.283 01/05/2000]',-0.006
'[05:05:21.287 01/05/2000]',-0.003
'[05:05:21.290 01/05/2000]',0.000
'[05:05:21.293 01/05/2000]',0.000
'[05:05:21.297 01/05/2000]',0.001
'[05:05:21.300 01/05/2000]',0.000
'[05:05:21.303 01/05/2000]',0.000
'[05:05:21.307 01/05/2000]',-0.001
'[05:05:21.310 01/05/2000]',-0.003
'[05:05:21.313 01/05/2000]',-0.005
'[05:05:21.317 01/05/2000]',-0.008
'[05:05:21.320 01/05/2000]',-0.010
'[05:05:21.323 01/05/2000]',-0.012
'[05:05:21.327 01/05/2000]',-0.013
'[05:05:21.330 01/05/2000]',-0.015
'[05:05:21.333 01/05/2000]',-0.016
'[05:05:21.337 01/05/2000]',-0.017
'[05:05:21.340 01/05/2000]',-0.018
'[05:05:21.343 01/05/2000]',-0.018
'[05:05:21.347 01/05/2000]',-0.018
'[05:05:21.350 01/05/2000]',-0.017
'[05:05:21.353 01/05/2000]',-0.016
'[05:05:21.357 01/05/2000]',-0.015
'[05:05:21.360 01/05/2000]',-0.014
'[05:05:21.363 01/05/2000]',-0.012
'[05:05:21.367 01/05/2000]',-0.011
'[05:05:21.370 01/05/2000]',-0.009
'[05:05:21.373 01/05/2000]',-0.008
'[05:05:21.377 01/05/2000]',-0.006
'[05:05:21.380 01/05/2000]',-0.005
'[05:05:21.383 01/05/2000]',-0.003
'[05:05:21.387 01/05/2000]',0.000
'[05:05:21.390 01/05/2000]',0.002
'[05:05:21.393 01/05/2000]',0.005
'[05:05:21.397 01/05/2000]',0.007
'[05:05:21.400 01/05/2000]',0.007
'[05:05:21.403 01/05/2000]',0.007
'[05:05:21.407 01/05/2000]',0.006
'[05:05:21.410 01/05/2000]',0.006
'[05:05:21.413 01/05/2000]',0.005
'[05:05:21.417 01/05/2000]',0.004
'[05:05:21.420 01/05/2000]',0.004
'[05:05:21.423 01/05/2000]',0.002
'[05:05:21.427 01/05/2000]',0.001
'[05:05:21.430 01/05/2000]',0.000
'[05:05:21.433 01/05/2000]',-0.001
'[05:05:21.437 01/05/2000]',-0.001
'[05:05:21.440 01/05/2000]',-0.001
'[05:05:21.443 01/05/2000]',0.000
'[05:05:21.447 01/05/2000]',0.000
'[05:05:21.450 01/05/2000]',0.000
'[05:05:21.453 01/05/2000]',0.000
'[05:05:21.457 01/05/2000]',0.001
'[05:05:21.460 01/05/2000]',0.003
'[05:05:21.463 01/05/2000]',0.005
'[05:05:21.467 01/05/2000]',0.008
'[05:05:21.470 01/05/2000]',0.010
'[05:05:21.473 01/05/2000]',0.018
'[05:05:21.477 01/05/2000]',0.030
'[05:05:21.480 01/05/2000]',0.037
'[05:05:21.483 01/05/2000]',0.043
'[05:05:21.487 01/05/2000]',0.043
'[05:05:21.490 01/05/2000]',0.038
'[05:05:21.493 01/05/2000]',0.034
'[05:05:21.497 01/05/2000]',0.031
'[05:05:21.500 01/05/2000]',0.029
'[05:05:21.503 01/05/2000]',0.030
'[05:05:21.507 01/05/2000]',0.034
'[05:05:21.510 01/05/2000]',0.040
'[05:05:21.513 01/05/2000]',0.046
'[05:05:21.517 01/05/2000]',0.056
'[05:05:21.520 01/05/2000]',0.068
'[05:05:21.523 01/05/2000]',0.084
'[05:05:21.527 01/05/2000]',0.102
'[05:05:21.530 01/05/2000]',0.111
'[05:05:21.533 01/05/2000]',0.117
'[05:05:21.537 01/05/2000]',0.121
'[05:05:21.540 01/05/2000]',0.121
'[05:05:21.543 01/05/2000]',0.116
'[05:05:21.547 01/05/2000]',0.108
'[05:05:21.550 01/05/2000]',0.095
'[05:05:21.553 01/05/2000]',0.078
'[05:05:21.557 01/05/2000]',0.066
'[05:05:21.560 01/05/2000]',0.059
'[05:05:21.563 01/05/2000]',0.052
'[05:05:21.567 01/05/2000]',0.044
'[05:05:21.570 01/05/2000]',0.031
'[05:05:21.573 01/05/2000]',0.018
'[05:05:21.577 01/05/2000]',0.014
'[05:05:21.580 01/05/2000]',0.011
'[05:05:21.583 01/05/2000]',0.009
'[05:05:21.587 01/05/2000]',0.008
'[05:05:21.590 01/05/2000]',0.008
'[05:05:21.593 01/05/2000]',0.010
'[05:05:21.597 01/05/2000]',0.015
'[05:05:21.600 01/05/2000]',0.020
'[05:05:21.603 01/05/2000]',0.027
'[05:05:21.607 01/05/2000]',0.038
'[05:05:21.610 01/05/2000]',0.047
'[05:05:21.613 01/05/2000]',0.056
'[05:05:21.617 01/05/2000]',0.065
'[05:05:21.620 01/05/2000]',0.077
'[05:05:21.623 01/05/2000]',0.106
'[05:05:21.627 01/05/2000]',0.158
'[05:05:21.630 01/05/2000]',0.236
'[05:05:21.633 01/05/2000]',0.339
'[05:05:21.637 01/05/2000]',0.462
'[05:05:21.640 01/05/2000]',0.596
'[05:05:21.643 01/05/2000]',0.724
'[05:05:21.647 01/05/2000]',0.826
'[05:05:21.650 01/05/2000]',0.874
'[05:05:21.653 01/05/2000]',0.874
'[05:05:21.657 01/05/2000]',0.825
'[05:05:21.660 01/05/2000]',0.715
'[05:05:21.663 01/05/2000]',0.567
'[05:05:21.667 01/05/2000]',0.394
'[05:05:21.670 01/05/2000]',0.216
'[05:05:21.673 01/05/2000]',0.062
'[05:05:21.677 01/05/2000]',-0.041
'[05:05:21.680 01/05/2000]',-0.076
'[05:05:21.683 01/05/2000]',-0.075
'[05:05:21.687 01/05/2000]',-0.054
'[05:05:21.690 01/05/2000]',-0.042
'[05:05:21.693 01/05/2000]',-0.051
'[05:05:21.697 01/05/2000]',-0.076
'[05:05:21.700 01/05/2000]',-0.114
'[05:05:21.703 01/05/2000]',-0.137
'[05:05:21.707 01/05/2000]',-0.144
'[05:05:21.710 01/05/2000]',-0.135
'[05:05:21.713 01/05/2000]',-0.121
'[05:05:21.717 01/05/2000]',-0.102
'[05:05:21.720 01/05/2000]',-0.086
'[05:05:21.723 01/05/2000]',-0.078
'[05:05:21.727 01/05/2000]',-0.072
'[05:05:21.730 01/05/2000]',-0.067
'[05:05:21.733 01/05/2000]',-0.063
'[05:05:21.737 01/05/2000]',-0.061
'[05:05:21.740 01/05/2000]',-0.060
'[05:05:21.743 01/05/2000]',-0.059
'[05:05:21.747 01/05/2000]',-0.058
'[05:05:21.750 01/05/2000]',-0.057
'[05:05:21.753 01/05/2000]',-0.056
'[05:05:21.757 01/05/2000]',-0.056
'[05:05:21.760 01/05/2000]',-0.055
'[05:05:21.763 01/05/2000]',-0.055
'[05:05:21.767 01/05/2000]',-0.055
'[05:05:21.770 01/05/2000]',-0.055
'[05:05:21.773 01/05/2000]',-0.054
'[05:05:21.777 01/05/2000]',-0.053
'[05:05:21.780 01/05/2000]',-0.052
'[05:05:21.783 01/05/2000]',-0.052
'[05:05:21.787 01/05/2000]',-0.052
'[05:05:21.790 01/05/2000]',-0.051
'[05:05:21.793 01/05/2000]',-0.051
'[05:05:21.797 01/05/2000]',-0.050
'[05:05:21.800 01/05/2000]',-0.050
'[05:05:21.803 01/05/2000]',-0.048
'[05:05:21.807 01/05/2000]',-0.047
'[05:05:21.810 01/05/2000]',-0.045
'[05:05:21.813 01/05/2000]',-0.041
'[05:05:21.817 01/05/2000]',-0.031
'[05:05:21.820 01/05/2000]',-0.021
'[05:05:21.823 01/05/2000]',-0.011
'[05:05:21.827 01/05/2000]',-0.001
'[05:05:21.830 01/05/2000]',0.005
'[05:05:21.833 01/05/2000]',0.011
'[05:05:21.837 01/05/2000]',0.016
'[05:05:21.840 01/05/2000]',0.023
'[05:05:21.843 01/05/2000]',0.033
'[05:05:21.847 01/05/2000]',0.039
'[05:05:21.850 01/05/2000]',0.043
'[05:05:21.853 01/05/2000]',0.047
'[05:05:21.857 01/05/2000]',0.051
'[05:05:21.860 01/05/2000]',0.055
'[05:05:21.863 01/05/2000]',0.059
'[05:05:21.867 01/05/2000]',0.062
'[05:05:21.870 01/05/2000]',0.066
'[05:05:21.873 01/05/2000]',0.069
'[05:05:21.877 01/05/2000]',0.073
'[05:05:21.880 01/05/2000]',0.077
'[05:05:21.883 01/05/2000]',0.080
'[05:05:21.887 01/05/2000]',0.081
'[05:05:21.890 01/05/2000]',0.080
'[05:05:21.893 01/05/2000]',0.079
'[05:05:21.897 01/05/2000]',0.076
'[05:05:21.900 01/05/2000]',0.073
'[05:05:21.903 01/05/2000]',0.062
'[05:05:21.907 01/05/2000]',0.035
'[05:05:21.910 01/05/2000]',0.009
'[05:05:21.913 01/05/2000]',0.001
'[05:05:21.917 01/05/2000]',-0.004
'[05:05:21.920 01/05/2000]',-0.011
'[05:05:21.923 01/05/2000]',-0.016
'[05:05:21.927 01/05/2000]',-0.024
'[05:05:21.930 01/05/2000]',-0.034
'[05:05:21.933 01/05/2000]',-0.043
'[05:05:21.937 01/05/2000]',-0.048
'[05:05:21.940 01/05/2000]',-0.051
'[05:05:21.943 01/05/2000]',-0.053
'[05:05:21.947 01/05/2000]',-0.055
'[05:05:21.950 01/05/2000]',-0.056
'[05:05:21.953 01/05/2000]',-0.058
'[05:05:21.957 01/05/2000]',-0.060
'[05:05:21.960 01/05/2000]',-0.063
'[05:05:21.963 01/05/2000]',-0.066
'[05:05:21.967 01/05/2000]',-0.068
'[05:05:21.970 01/05/2000]',-0.071
'[05:05:21.973 01/05/2000]',-0.075
'[05:05:21.977 01/05/2000]',-0.080
'[05:05:21.980 01/05/2000]',-0.089
'[05:05:21.983 01/05/2000]',-0.104
'[05:05:21.987 01/05/2000]',-0.112
'[05:05:21.990 01/05/2000]',-0.116
'[05:05:21.993 01/05/2000]',-0.119
'[05:05:21.997 01/05/2000]',-0.122
'[05:05:22.000 01/05/2000]',-0.125
'[05:05:22.003 01/05/2000]',-0.126
'[05:05:22.007 01/05/2000]',-0.126
'[05:05:22.010 01/05/2000]',-0.123
'[05:05:22.013 01/05/2000]',-0.120
'[05:05:22.017 01/05/2000]',-0.115
'[05:05:22.020 01/05/2000]',-0.110
'[05:05:22.023 01/05/2000]',-0.102
'[05:05:22.027 01/05/2000]',-0.101
'[05:05:22.030 01/05/2000]',-0.106
'[05:05:22.033 01/05/2000]',-0.109
'[05:05:22.037 01/05/2000]',-0.111
'[05:05:22.040 01/05/2000]',-0.113
'[05:05:22.043 01/05/2000]',-0.115
'[05:05:22.047 01/05/2000]',-0.116
'[05:05:22.050 01/05/2000]',-0.116
'[05:05:22.053 01/05/2000]',-0.116
'[05:05:22.057 01/05/2000]',-0.116
'[05:05:22.060 01/05/2000]',-0.116
'[05:05:22.063 01/05/2000]',-0.116
'[05:05:22.067 01/05/2000]',-0.115
'[05:05:22.070 01/05/2000]',-0.113
'[05:05:22.073 01/05/2000]',-0.110
'[05:05:22.077 01/05/2000]',-0.124
'[05:05:22.080 01/05/2000]',-0.148
'[05:05:22.083 01/05/2000]',-0.175
'[05:05:22.087 01/05/2000]',-0.188
'[05:05:22.090 01/05/2000]',-0.195
'[05:05:22.093 01/05/2000]',-0.200
'[05:05:22.097 01/05/2000]',-0.203
'[05:05:22.100 01/05/2000]',-0.206
'[05:05:22.103 01/05/2000]',-0.209
'[05:05:22.107 01/05/2000]',-0.212
'[05:05:22.110 01/05/2000]',-0.216
'[05:05:22.113 01/05/2000]',-0.218
'[05:05:22.117 01/05/2000]',-0.221
'[05:05:22.120 01/05/2000]',-0.224
'[05:05:22.123 01/05/2000]',-0.227
'[05:05:22.127 01/05/2000]',-0.231
'[05:05:22.130 01/05/2000]',-0.235
'[05:05:22.133 01/05/2000]',-0.239
'[05:05:22.137 01/05/2000]',-0.242
'[05:05:22.140 01/05/2000]',-0.245
'[05:05:22.143 01/05/2000]',-0.248
'[05:05:22.147 01/05/2000]',-0.252
'[05:05:22.150 01/05/2000]',-0.258
'[05:05:22.153 01/05/2000]',-0.265
'[05:05:22.157 01/05/2000]',-0.273
'[05:05:22.160 01/05/2000]',-0.281
'[05:05:22.163 01/05/2000]',-0.289
'[05:05:22.167 01/05/2000]',-0.296
'[05:05:22.170 01/05/2000]',-0.303
'[05:05:22.173 01/05/2000]',-0.309
'[05:05:22.177 01/05/2000]',-0.314
'[05:05:22.180 01/05/2000]',-0.318
'[05:05:22.183 01/05/2000]',-0.321
'[05:05:22.187 01/05/2000]',-0.324
'[05:05:22.190 01/05/2000]',-0.326
'[05:05:22.193 01/05/2000]',-0.328
'[05:05:22.197 01/05/2000]',-0.328
'[05:05:22.200 01/05/2000]',-0.328
'[05:05:22.203 01/05/2000]',-0.325
'[05:05:22.207 01/05/2000]',-0.321
'[05:05:22.210 01/05/2000]',-0.317
'[05:05:22.213 01/05/2000]',-0.312
'[05:05:22.217 01/05/2000]',-0.306
'[05:05:22.220 01/05/2000]',-0.298
'[05:05:22.223 01/05/2000]',-0.289
'[05:05:22.227 01/05/2000]',-0.282
'[05:05:22.230 01/05/2000]',-0.275
'[05:05:22.233 01/05/2000]',-0.261
'[05:05:22.237 01/05/2000]',-0.238
'[05:05:22.240 01/05/2000]',-0.217
'[05:05:22.243 01/05/2000]',-0.202
'[05:05:22.247 01/05/2000]',-0.188
'[05:05:22.250 01/05/2000]',-0.170
'[05:05:22.253 01/05/2000]',-0.148
'[05:05:22.257 01/05/2000]',-0.127
'[05:05:22.260 01/05/2000]',-0.105
'[05:05:22.263 01/05/2000]',-0.083
'[05:05:22.267 01/05/2000]',-0.063
'[05:05:22.270 01/05/2000]',-0.049
'[05:05:22.273 01/05/2000]',-0.039
'[05:05:22.277 01/05/2000]',-0.022
'[05:05:22.280 01/05/2000]',0.001
'[05:05:22.283 01/05/2000]',0.019
'[05:05:22.287 01/05/2000]',0.026
'[05:05:22.290 01/05/2000]',0.031
'[05:05:22.293 01/05/2000]',0.030
'[05:05:22.297 01/05/2000]',0.020
'[05:05:22.300 01/05/2000]',0.013
'[05:05:22.303 01/05/2000]',0.007
'[05:05:22.307 01/05/2000]',0.002
'[05:05:22.310 01/05/2000]',0.000
'[05:05:22.313 01/05/2000]',0.002
'[05:05:22.317 01/05/2000]',0.008
'[05:05:22.320 01/05/2000]',0.018
'[05:05:22.323 01/05/2000]',0.049
'[05:05:22.327 01/05/2000]',0.087
'[05:05:22.330 01/05/2000]',0.125
'[05:05:22.333 01/05/2000]',0.142
'[05:05:22.337 01/05/2000]',0.152
'[05:05:22.340 01/05/2000]',0.159
'[05:05:22.343 01/05/2000]',0.158
'[05:05:22.347 01/05/2000]',0.145
'[05:05:22.350 01/05/2000]',0.127
'[05:05:22.353 01/05/2000]',0.103
'[05:05:22.357 01/05/2000]',0.090
'[05:05:22.360 01/05/2000]',0.084
'[05:05:22.363 01/05/2000]',0.079
'[05:05:22.367 01/05/2000]',0.074
'[05:05:22.370 01/05/2000]',0.070
'[05:05:22.373 01/05/2000]',0.065
'[05:05:22.377 01/05/2000]',0.057
'[05:05:22.380 01/05/2000]',0.028
'[05:05:22.383 01/05/2000]',-0.007
'[05:05:22.387 01/05/2000]',-0.031
'[05:05:22.390 01/05/2000]',-0.059
'[05:05:22.393 01/05/2000]',-0.078
'[05:05:22.397 01/05/2000]',-0.090
'[05:05:22.400 01/05/2000]',-0.089
'[05:05:22.403 01/05/2000]',-0.063
'[05:05:22.407 01/05/2000]',-0.008
'[05:05:22.410 01/05/2000]',0.065
'[05:05:22.413 01/05/2000]',0.149
'[05:05:22.417 01/05/2000]',0.232
'[05:05:22.420 01/05/2000]',0.306
'[05:05:22.423 01/05/2000]',0.372
'[05:05:22.427 01/05/2000]',0.431
'[05:05:22.430 01/05/2000]',0.464
'[05:05:22.433 01/05/2000]',0.463
'[05:05:22.437 01/05/2000]',0.422
'[05:05:22.440 01/05/2000]',0.329
'[05:05:22.443 01/05/2000]',0.207
'[05:05:22.447 01/05/2000]',0.075
'[05:05:22.450 01/05/2000]',-0.046
'[05:05:22.453 01/05/2000]',-0.149
'[05:05:22.457 01/05/2000]',-0.233
'[05:05:22.460 01/05/2000]',-0.300
'[05:05:22.463 01/05/2000]',-0.345
'[05:05:22.467 01/05/2000]',-0.365
'[05:05:22.470 01/05/2000]',-0.374
'[05:05:22.473 01/05/2000]',-0.379
'[05:05:22.477 01/05/2000]',-0.382
'[05:05:22.480 01/05/2000]',-0.386
'[05:05:22.483 01/05/2000]',-0.391
'[05:05:22.487 01/05/2000]',-0.397
'[05:05:22.490 01/05/2000]',-0.403
'[05:05:22.493 01/05/2000]',-0.413
'[05:05:22.497 01/05/2000]',-0.426
'[05:05:22.500 01/05/2000]',-0.427
'[05:05:22.503 01/05/2000]',-0.415
'[05:05:22.507 01/05/2000]',-0.404
'[05:05:22.510 01/05/2000]',-0.393
'[05:05:22.513 01/05/2000]',-0.383
'[05:05:22.517 01/05/2000]',-0.374
'[05:05:22.520 01/05/2000]',-0.369
'[05:05:22.523 01/05/2000]',-0.366
'[05:05:22.527 01/05/2000]',-0.364
'[05:05:22.530 01/05/2000]',-0.361
'[05:05:22.533 01/05/2000]',-0.357
'[05:05:22.537 01/05/2000]',-0.353
'[05:05:22.540 01/05/2000]',-0.350
'[05:05:22.543 01/05/2000]',-0.346
'[05:05:22.547 01/05/2000]',-0.340
'[05:05:22.550 01/05/2000]',-0.329
'[05:05:22.553 01/05/2000]',-0.306
'[05:05:22.557 01/05/2000]',-0.290
'[05:05:22.560 01/05/2000]',-0.281
'[05:05:22.563 01/05/2000]',-0.272
'[05:05:22.567 01/05/2000]',-0.263
'[05:05:22.570 01/05/2000]',-0.236
'[05:05:22.573 01/05/2000]',-0.202
'[05:05:22.577 01/05/2000]',-0.166
'[05:05:22.580 01/05/2000]',-0.142
'[05:05:22.583 01/05/2000]',-0.116
'[05:05:22.587 01/05/2000]',-0.088
'[05:05:22.590 01/05/2000]',-0.039
'[05:05:22.593 01/05/2000]',0.022
'[05:05:22.597 01/05/2000]',0.084
'[05:05:22.600 01/05/2000]',0.134
'[05:05:22.603 01/05/2000]',0.172
'[05:05:22.607 01/05/2000]',0.208
'[05:05:22.610 01/05/2000]',0.230
'[05:05:22.613 01/05/2000]',0.267
'[05:05:22.617 01/05/2000]',0.301
'[05:05:22.620 01/05/2000]',0.322
'[05:05:22.623 01/05/2000]',0.344
'[05:05:22.627 01/05/2000]',0.365
'[05:05:22.630 01/05/2000]',0.396
'[05:05:22.633 01/05/2000]',0.436
'[05:05:22.637 01/05/2000]',0.481
'[05:05:22.640 01/05/2000]',0.520
'[05:05:22.643 01/05/2000]',0.556
'[05:05:22.647 01/05/2000]',0.581
'[05:05:22.650 01/05/2000]',0.606
'[05:05:22.653 01/05/2000]',0.621
'[05:05:22.657 01/05/2000]',0.623
'[05:05:22.660 01/05/2000]',0.625
'[05:05:22.663 01/05/2000]',0.626
'[05:05:22.667 01/05/2000]',0.627
'[05:05:22.670 01/05/2000]',0.622
'[05:05:22.673 01/05/2000]',0.613
'[05:05:22.677 01/05/2000]',0.602
'[05:05:22.680 01/05/2000]',0.589
'[05:05:22.683 01/05/2000]',0.576
'[05:05:22.687 01/05/2000]',0.566
'[05:05:22.690 01/05/2000]',0.559
'[05:05:22.693 01/05/2000]',0.552
'[05:05:22.697 01/05/2000]',0.543
'[05:05:22.700 01/05/2000]',0.534
'[05:05:22.703 01/05/2000]',0.528
'[05:05:22.707 01/05/2000]',0.523
'[05:05:22.710 01/05/2000]',0.519
'[05:05:22.713 01/05/2000]',0.516
'[05:05:22.717 01/05/2000]',0.512
'[05:05:22.720 01/05/2000]',0.508
'[05:05:22.723 01/05/2000]',0.504
'[05:05:22.727 01/05/2000]',0.499
'[05:05:22.730 01/05/2000]',0.495
'[05:05:22.733 01/05/2000]',0.489
'[05:05:22.737 01/05/2000]',0.483
'[05:05:22.740 01/05/2000]',0.477
'[05:05:22.743 01/05/2000]',0.469
'[05:05:22.747 01/05/2000]',0.463
'[05:05:22.750 01/05/2000]',0.457
'[05:05:22.753 01/05/2000]',0.451
'[05:05:22.757 01/05/2000]',0.444
'[05:05:22.760 01/05/2000]',0.434
'[05:05:22.763 01/05/2000]',0.418
'[05:05:22.767 01/05/2000]',0.403
'[05:05:22.770 01/05/2000]',0.389
'[05:05:22.773 01/05/2000]',0.374
'[05:05:22.777 01/05/2000]',0.358
'[05:05:22.780 01/05/2000]',0.341
'[05:05:22.783 01/05/2000]',0.325
'[05:05:22.787 01/05/2000]',0.319
'[05:05:22.790 01/05/2000]',0.316
'[05:05:22.793 01/05/2000]',0.314
'[05:05:22.797 01/05/2000]',0.313
'[05:05:22.800 01/05/2000]',0.311
'[05:05:22.803 01/05/2000]',0.309
'[05:05:22.807 01/05/2000]',0.305
'[05:05:22.810 01/05/2000]',0.301
'[05:05:22.813 01/05/2000]',0.296
'[05:05:22.817 01/05/2000]',0.290
'[05:05:22.820 01/05/2000]',0.280
'[05:05:22.823 01/05/2000]',0.262
'[05:05:22.827 01/05/2000]',0.245
'[05:05:22.830 01/05/2000]',0.228
'[05:05:22.833 01/05/2000]',0.211
'[05:05:22.837 01/05/2000]',0.195
'[05:05:22.840 01/05/2000]',0.185
'[05:05:22.843 01/05/2000]',0.178
'[05:05:22.847 01/05/2000]',0.171
'[05:05:22.850 01/05/2000]',0.164
'[05:05:22.853 01/05/2000]',0.156
'[05:05:22.857 01/05/2000]',0.148
'[05:05:22.860 01/05/2000]',0.141
'[05:05:22.863 01/05/2000]',0.132
'[05:05:22.867 01/05/2000]',0.123
'[05:05:22.870 01/05/2000]',0.113
'[05:05:22.873 01/05/2000]',0.104
'[05:05:22.877 01/05/2000]',0.097
'[05:05:22.880 01/05/2000]',0.089
'[05:05:22.883 01/05/2000]',0.082
'[05:05:22.887 01/05/2000]',0.073
'[05:05:22.890 01/05/2000]',0.063
'[05:05:22.893 01/05/2000]',0.049
'[05:05:22.897 01/05/2000]',0.035
'[05:05:22.900 01/05/2000]',0.025
'[05:05:22.903 01/05/2000]',0.017
'[05:05:22.907 01/05/2000]',0.009
'[05:05:22.910 01/05/2000]',0.003
'[05:05:22.913 01/05/2000]',0.000
'[05:05:22.917 01/05/2000]',-0.003
'[05:05:22.920 01/05/2000]',-0.005
'[05:05:22.923 01/05/2000]',-0.007
'[05:05:22.927 01/05/2000]',-0.008
'[05:05:22.930 01/05/2000]',-0.010
'[05:05:22.933 01/05/2000]',-0.012
'[05:05:22.937 01/05/2000]',-0.014
'[05:05:22.940 01/05/2000]',-0.016
'[05:05:22.943 01/05/2000]',-0.018
'[05:05:22.947 01/05/2000]',-0.019
'[05:05:22.950 01/05/2000]',-0.021
'[05:05:22.953 01/05/2000]',-0.023
'[05:05:22.957 01/05/2000]',-0.025
'[05:05:22.960 01/05/2000]',-0.027
'[05:05:22.963 01/05/2000]',-0.030
'[05:05:22.967 01/05/2000]',-0.032
'[05:05:22.970 01/05/2000]',-0.034
'[05:05:22.973 01/05/2000]',-0.036
'[05:05:22.977 01/05/2000]',-0.038
'[05:05:22.980 01/05/2000]',-0.039
'[05:05:22.983 01/05/2000]',-0.041
'[05:05:22.987 01/05/2000]',-0.041
'[05:05:22.990 01/05/2000]',-0.042
'[05:05:22.993 01/05/2000]',-0.044
'[05:05:22.997 01/05/2000]',-0.045
'[05:05:23.000 01/05/2000]',-0.046
'[05:05:23.003 01/05/2000]',-0.047
'[05:05:23.007 01/05/2000]',-0.048
'[05:05:23.010 01/05/2000]',-0.049
'[05:05:23.013 01/05/2000]',-0.051
'[05:05:23.017 01/05/2000]',-0.053
'[05:05:23.020 01/05/2000]',-0.055
'[05:05:23.023 01/05/2000]',-0.056
'[05:05:23.027 01/05/2000]',-0.057
'[05:05:23.030 01/05/2000]',-0.058
'[05:05:23.033 01/05/2000]',-0.059
'[05:05:23.037 01/05/2000]',-0.061
'[05:05:23.040 01/05/2000]',-0.063
'[05:05:23.043 01/05/2000]',-0.064
'[05:05:23.047 01/05/2000]',-0.066
'[05:05:23.050 01/05/2000]',-0.068
'[05:05:23.053 01/05/2000]',-0.071
'[05:05:23.057 01/05/2000]',-0.075
'[05:05:23.060 01/05/2000]',-0.080
'[05:05:23.063 01/05/2000]',-0.083
'[05:05:23.067 01/05/2000]',-0.084
'[05:05:23.070 01/05/2000]',-0.082
'[05:05:23.073 01/05/2000]',-0.079
'[05:05:23.077 01/05/2000]',-0.075
'[05:05:23.080 01/05/2000]',-0.070
'[05:05:23.083 01/05/2000]',-0.066
'[05:05:23.087 01/05/2000]',-0.061
'[05:05:23.090 01/05/2000]',-0.057
'[05:05:23.093 01/05/2000]',-0.051
'[05:05:23.097 01/05/2000]',-0.046
'[05:05:23.100 01/05/2000]',-0.040
'[05:05:23.103 01/05/2000]',-0.034
'[05:05:23.107 01/05/2000]',-0.027
'[05:05:23.110 01/05/2000]',-0.020
'[05:05:23.113 01/05/2000]',-0.012
'[05:05:23.117 01/05/2000]',-0.001
'[05:05:23.120 01/05/2000]',0.007
'[05:05:23.123 01/05/2000]',0.007
'[05:05:23.127 01/05/2000]',0.001
'[05:05:23.130 01/05/2000]',-0.007
'[05:05:23.133 01/05/2000]',-0.019
'[05:05:23.137 01/05/2000]',-0.035
'[05:05:23.140 01/05/2000]',-0.047
'[05:05:23.143 01/05/2000]',-0.064
'[05:05:23.147 01/05/2000]',-0.085
'[05:05:23.150 01/05/2000]',-0.096
'[05:05:23.153 01/05/2000]',-0.101
'[05:05:23.157 01/05/2000]',-0.107
'[05:05:23.160 01/05/2000]',-0.110
'[05:05:23.163 01/05/2000]',-0.113
'[05:05:23.167 01/05/2000]',-0.115
'[05:05:23.170 01/05/2000]',-0.116
'[05:05:23.173 01/05/2000]',-0.116
'[05:05:23.177 01/05/2000]',-0.116
'[05:05:23.180 01/05/2000]',-0.115
'[05:05:23.183 01/05/2000]',-0.113
'[05:05:23.187 01/05/2000]',-0.110
'[05:05:23.190 01/05/2000]',-0.106
'[05:05:23.193 01/05/2000]',-0.099
'[05:05:23.197 01/05/2000]',-0.091
'[05:05:23.200 01/05/2000]',-0.061
'[05:05:23.203 01/05/2000]',-0.007
'[05:05:23.207 01/05/2000]',0.062
'[05:05:23.210 01/05/2000]',0.144
'[05:05:23.213 01/05/2000]',0.237
'[05:05:23.217 01/05/2000]',0.341
'[05:05:23.220 01/05/2000]',0.450
'[05:05:23.223 01/05/2000]',0.555
'[05:05:23.227 01/05/2000]',0.640
'[05:05:23.230 01/05/2000]',0.679
'[05:05:23.233 01/05/2000]',0.693
'[05:05:23.237 01/05/2000]',0.671
'[05:05:23.240 01/05/2000]',0.604
'[05:05:23.243 01/05/2000]',0.481
'[05:05:23.247 01/05/2000]',0.320
'[05:05:23.250 01/05/2000]',0.147
'[05:05:23.253 01/05/2000]',-0.012
'[05:05:23.257 01/05/2000]',-0.132
'[05:05:23.260 01/05/2000]',-0.205
'[05:05:23.263 01/05/2000]',-0.231
'[05:05:23.267 01/05/2000]',-0.240
'[05:05:23.270 01/05/2000]',-0.249
'[05:05:23.273 01/05/2000]',-0.248
'[05:05:23.277 01/05/2000]',-0.234
'[05:05:23.280 01/05/2000]',-0.210
'[05:05:23.283 01/05/2000]',-0.184
'[05:05:23.287 01/05/2000]',-0.173
'[05:05:23.290 01/05/2000]',-0.168
'[05:05:23.293 01/05/2000]',-0.164
'[05:05:23.297 01/05/2000]',-0.161
'[05:05:23.300 01/05/2000]',-0.159
'[05:05:23.303 01/05/2000]',-0.156
'[05:05:23.307 01/05/2000]',-0.153
'[05:05:23.310 01/05/2000]',-0.151
'[05:05:23.313 01/05/2000]',-0.149
'[05:05:23.317 01/05/2000]',-0.147
'[05:05:23.320 01/05/2000]',-0.145
'[05:05:23.323 01/05/2000]',-0.144
'[05:05:23.327 01/05/2000]',-0.143
'[05:05:23.330 01/05/2000]',-0.144
'[05:05:23.333 01/05/2000]',-0.144
'[05:05:23.337 01/05/2000]',-0.144
'[05:05:23.340 01/05/2000]',-0.144
'[05:05:23.343 01/05/2000]',-0.142
'[05:05:23.347 01/05/2000]',-0.140
'[05:05:23.350 01/05/2000]',-0.138
'[05:05:23.353 01/05/2000]',-0.136
'[05:05:23.357 01/05/2000]',-0.134
'[05:05:23.360 01/05/2000]',-0.133
'[05:05:23.363 01/05/2000]',-0.131
'[05:05:23.367 01/05/2000]',-0.129
'[05:05:23.370 01/05/2000]',-0.127
'[05:05:23.373 01/05/2000]',-0.124
'[05:05:23.377 01/05/2000]',-0.121
'[05:05:23.380 01/05/2000]',-0.118
'[05:05:23.383 01/05/2000]',-0.115
'[05:05:23.387 01/05/2000]',-0.111
'[05:05:23.390 01/05/2000]',-0.107
'[05:05:23.393 01/05/2000]',-0.101
'[05:05:23.397 01/05/2000]',-0.095
'[05:05:23.400 01/05/2000]',-0.088
'[05:05:23.403 01/05/2000]',-0.082
'[05:05:23.407 01/05/2000]',-0.077
'[05:05:23.410 01/05/2000]',-0.073
'[05:05:23.413 01/05/2000]',-0.068
'[05:05:23.417 01/05/2000]',-0.061
'[05:05:23.420 01/05/2000]',-0.047
'[05:05:23.423 01/05/2000]',-0.019
'[05:05:23.427 01/05/2000]',0.000
'[05:05:23.430 01/05/2000]',0.009
'[05:05:23.433 01/05/2000]',0.018
'[05:05:23.437 01/05/2000]',0.028
'[05:05:23.440 01/05/2000]',0.038
'[05:05:23.443 01/05/2000]',0.048
'[05:05:23.447 01/05/2000]',0.054
'[05:05:23.450 01/05/2000]',0.061
'[05:05:23.453 01/05/2000]',0.067
'[05:05:23.457 01/05/2000]',0.073
'[05:05:23.460 01/05/2000]',0.077
'[05:05:23.463 01/05/2000]',0.078
'[05:05:23.467 01/05/2000]',0.077
'[05:05:23.470 01/05/2000]',0.073
'[05:05:23.473 01/05/2000]',0.067
'[05:05:23.477 01/05/2000]',0.061
'[05:05:23.480 01/05/2000]',0.055
'[05:05:23.483 01/05/2000]',0.049
'[05:05:23.487 01/05/2000]',0.042
'[05:05:23.490 01/05/2000]',0.033
'[05:05:23.493 01/05/2000]',0.026
'[05:05:23.497 01/05/2000]',0.020
'[05:05:23.500 01/05/2000]',0.014
'[05:05:23.503 01/05/2000]',0.010
'[05:05:23.507 01/05/2000]',0.005
'[05:05:23.510 01/05/2000]',0.001
'[05:05:23.513 01/05/2000]',-0.002
'[05:05:23.517 01/05/2000]',-0.006
'[05:05:23.520 01/05/2000]',-0.010
'[05:05:23.523 01/05/2000]',-0.014
'[05:05:23.527 01/05/2000]',-0.017
'[05:05:23.530 01/05/2000]',-0.020
'[05:05:23.533 01/05/2000]',-0.022
'[05:05:23.537 01/05/2000]',-0.026
'[05:05:23.540 01/05/2000]',-0.031
'[05:05:23.543 01/05/2000]',-0.037
'[05:05:23.547 01/05/2000]',-0.042
'[05:05:23.550 01/05/2000]',-0.044
'[05:05:23.553 01/05/2000]',-0.044
'[05:05:23.557 01/05/2000]',-0.042
'[05:05:23.560 01/05/2000]',-0.039
'[05:05:23.563 01/05/2000]',-0.035
'[05:05:23.567 01/05/2000]',-0.031
'[05:05:23.570 01/05/2000]',-0.024
'[05:05:23.573 01/05/2000]',-0.018
'[05:05:23.577 01/05/2000]',-0.016
'[05:05:23.580 01/05/2000]',-0.018
'[05:05:23.583 01/05/2000]',-0.022
'[05:05:23.587 01/05/2000]',-0.023
'[05:05:23.590 01/05/2000]',-0.025
'[05:05:23.593 01/05/2000]',-0.026
'[05:05:23.597 01/05/2000]',-0.027
'[05:05:23.600 01/05/2000]',-0.029
'[05:05:23.603 01/05/2000]',-0.030
'[05:05:23.607 01/05/2000]',-0.033
'[05:05:23.610 01/05/2000]',-0.034
'[05:05:23.613 01/05/2000]',-0.035
'[05:05:23.617 01/05/2000]',-0.034
'[05:05:23.620 01/05/2000]',-0.033
'[05:05:23.623 01/05/2000]',-0.031
'[05:05:23.627 01/05/2000]',-0.029
'[05:05:23.630 01/05/2000]',-0.027
'[05:05:23.633 01/05/2000]',-0.026
'[05:05:23.637 01/05/2000]',-0.025
'[05:05:23.640 01/05/2000]',-0.024
'[05:05:23.643 01/05/2000]',-0.024
'[05:05:23.647 01/05/2000]',-0.024
'[05:05:23.650 01/05/2000]',-0.025
'[05:05:23.653 01/05/2000]',-0.026
'[05:05:23.657 01/05/2000]',-0.026
'[05:05:23.660 01/05/2000]',-0.027
'[05:05:23.663 01/05/2000]',-0.027
'[05:05:23.667 01/05/2000]',-0.026
'[05:05:23.670 01/05/2000]',-0.025
'[05:05:23.673 01/05/2000]',-0.024
'[05:05:23.677 01/05/2000]',-0.022
'[05:05:23.680 01/05/2000]',-0.021
'[05:05:23.683 01/05/2000]',-0.020
'[05:05:23.687 01/05/2000]',-0.021
'[05:05:23.690 01/05/2000]',-0.022
'[05:05:23.693 01/05/2000]',-0.024
'[05:05:23.697 01/05/2000]',-0.026
'[05:05:23.700 01/05/2000]',-0.029
'[05:05:23.703 01/05/2000]',-0.030
'[05:05:23.707 01/05/2000]',-0.030
'[05:05:23.710 01/05/2000]',-0.029
'[05:05:23.713 01/05/2000]',-0.029
'[05:05:23.717 01/05/2000]',-0.029
'[05:05:23.720 01/05/2000]',-0.028
'[05:05:23.723 01/05/2000]',-0.027
'[05:05:23.727 01/05/2000]',-0.025
'[05:05:23.730 01/05/2000]',-0.023
'[05:05:23.733 01/05/2000]',-0.022
'[05:05:23.737 01/05/2000]',-0.021
'[05:05:23.740 01/05/2000]',-0.021
'[05:05:23.743 01/05/2000]',-0.021
'[05:05:23.747 01/05/2000]',-0.022
'[05:05:23.750 01/05/2000]',-0.022
'[05:05:23.753 01/05/2000]',-0.022
'[05:05:23.757 01/05/2000]',-0.022
'[05:05:23.760 01/05/2000]',-0.022
'[05:05:23.763 01/05/2000]',-0.021
'[05:05:23.767 01/05/2000]',-0.019
'[05:05:23.770 01/05/2000]',-0.018
'[05:05:23.773 01/05/2000]',-0.016
'[05:05:23.777 01/05/2000]',-0.015
'[05:05:23.780 01/05/2000]',-0.015
'[05:05:23.783 01/05/2000]',-0.015
'[05:05:23.787 01/05/2000]',-0.016
'[05:05:23.790 01/05/2000]',-0.017
'[05:05:23.793 01/05/2000]',-0.018
'[05:05:23.797 01/05/2000]',-0.020
'[05:05:23.800 01/05/2000]',-0.022
'[05:05:23.803 01/05/2000]',-0.025
'[05:05:23.807 01/05/2000]',-0.028
'[05:05:23.810 01/05/2000]',-0.030
'[05:05:23.813 01/05/2000]',-0.032
'[05:05:23.817 01/05/2000]',-0.033
'[05:05:23.820 01/05/2000]',-0.035
'[05:05:23.823 01/05/2000]',-0.037
'[05:05:23.827 01/05/2000]',-0.039
'[05:05:23.830 01/05/2000]',-0.041
'[05:05:23.833 01/05/2000]',-0.043
'[05:05:23.837 01/05/2000]',-0.044
'[05:05:23.840 01/05/2000]',-0.045
'[05:05:23.843 01/05/2000]',-0.047
'[05:05:23.847 01/05/2000]',-0.049
'[05:05:23.850 01/05/2000]',-0.051
'[05:05:23.853 01/05/2000]',-0.053
'[05:05:23.857 01/05/2000]',-0.054
'[05:05:23.860 01/05/2000]',-0.055
'[05:05:23.863 01/05/2000]',-0.054
'[05:05:23.867 01/05/2000]',-0.053
'[05:05:23.870 01/05/2000]',-0.052
'[05:05:23.873 01/05/2000]',-0.051
'[05:05:23.877 01/05/2000]',-0.049
'[05:05:23.880 01/05/2000]',-0.047
'[05:05:23.883 01/05/2000]',-0.043
'[05:05:23.887 01/05/2000]',-0.039
'[05:05:23.890 01/05/2000]',-0.035
'[05:05:23.893 01/05/2000]',-0.030
'[05:05:23.897 01/05/2000]',-0.027
'[05:05:23.900 01/05/2000]',-0.023
'[05:05:23.903 01/05/2000]',-0.017
'[05:05:23.907 01/05/2000]',-0.011
'[05:05:23.910 01/05/2000]',-0.005
'[05:05:23.913 01/05/2000]',0.000
'[05:05:23.917 01/05/2000]',0.005
'[05:05:23.920 01/05/2000]',0.009
'[05:05:23.923 01/05/2000]',0.012
'[05:05:23.927 01/05/2000]',0.015
'[05:05:23.930 01/05/2000]',0.019
'[05:05:23.933 01/05/2000]',0.022
'[05:05:23.937 01/05/2000]',0.024
'[05:05:23.940 01/05/2000]',0.023
'[05:05:23.943 01/05/2000]',0.018
'[05:05:23.947 01/05/2000]',0.010
'[05:05:23.950 01/05/2000]',0.001
'[05:05:23.953 01/05/2000]',-0.006
'[05:05:23.957 01/05/2000]',-0.012
'[05:05:23.960 01/05/2000]',-0.018
'[05:05:23.963 01/05/2000]',-0.025
'[05:05:23.967 01/05/2000]',-0.031
'[05:05:23.970 01/05/2000]',-0.037
'[05:05:23.973 01/05/2000]',-0.042
'[05:05:23.977 01/05/2000]',-0.045
'[05:05:23.980 01/05/2000]',-0.048
'[05:05:23.983 01/05/2000]',-0.049
'[05:05:23.987 01/05/2000]',-0.050
'[05:05:23.990 01/05/2000]',-0.049
'[05:05:23.993 01/05/2000]',-0.048
'[05:05:23.997 01/05/2000]',-0.045
'[05:05:24.000 01/05/2000]',-0.041
'[05:05:24.003 01/05/2000]',-0.035
'[05:05:24.007 01/05/2000]',-0.028
'[05:05:24.010 01/05/2000]',-0.019
'[05:05:24.013 01/05/2000]',0.012
'[05:05:24.017 01/05/2000]',0.069
'[05:05:24.020 01/05/2000]',0.151
'[05:05:24.023 01/05/2000]',0.257
'[05:05:24.027 01/05/2000]',0.382
'[05:05:24.030 01/05/2000]',0.522
'[05:05:24.033 01/05/2000]',0.663
'[05:05:24.037 01/05/2000]',0.789
'[05:05:24.040 01/05/2000]',0.872
'[05:05:24.043 01/05/2000]',0.901
'[05:05:24.047 01/05/2000]',0.880
'[05:05:24.050 01/05/2000]',0.814
'[05:05:24.053 01/05/2000]',0.666
'[05:05:24.057 01/05/2000]',0.477
'[05:05:24.060 01/05/2000]',0.275
'[05:05:24.063 01/05/2000]',0.093
'[05:05:24.067 01/05/2000]',-0.039
'[05:05:24.070 01/05/2000]',-0.081
'[05:05:24.073 01/05/2000]',-0.091
'[05:05:24.077 01/05/2000]',-0.098
'[05:05:24.080 01/05/2000]',-0.104
'[05:05:24.083 01/05/2000]',-0.109
'[05:05:24.087 01/05/2000]',-0.112
'[05:05:24.090 01/05/2000]',-0.113
'[05:05:24.093 01/05/2000]',-0.114
'[05:05:24.097 01/05/2000]',-0.114
'[05:05:24.100 01/05/2000]',-0.113
'[05:05:24.103 01/05/2000]',-0.110
'[05:05:24.107 01/05/2000]',-0.108
'[05:05:24.110 01/05/2000]',-0.103
'[05:05:24.113 01/05/2000]',-0.097
'[05:05:24.117 01/05/2000]',-0.092
'[05:05:24.120 01/05/2000]',-0.089
'[05:05:24.123 01/05/2000]',-0.087
'[05:05:24.127 01/05/2000]',-0.085
'[05:05:24.130 01/05/2000]',-0.083
'[05:05:24.133 01/05/2000]',-0.081
'[05:05:24.137 01/05/2000]',-0.079
'[05:05:24.140 01/05/2000]',-0.077
'[05:05:24.143 01/05/2000]',-0.076
'[05:05:24.147 01/05/2000]',-0.076
'[05:05:24.150 01/05/2000]',-0.075
'[05:05:24.153 01/05/2000]',-0.074
'[05:05:24.157 01/05/2000]',-0.072
'[05:05:24.160 01/05/2000]',-0.070
'[05:05:24.163 01/05/2000]',-0.068
'[05:05:24.167 01/05/2000]',-0.067
'[05:05:24.170 01/05/2000]',-0.066
'[05:05:24.173 01/05/2000]',-0.065
'[05:05:24.177 01/05/2000]',-0.064
'[05:05:24.180 01/05/2000]',-0.062
'[05:05:24.183 01/05/2000]',-0.060
'[05:05:24.187 01/05/2000]',-0.058
'[05:05:24.190 01/05/2000]',-0.056
'[05:05:24.193 01/05/2000]',-0.054
'[05:05:24.197 01/05/2000]',-0.051
'[05:05:24.200 01/05/2000]',-0.045
'[05:05:24.203 01/05/2000]',-0.038
'[05:05:24.207 01/05/2000]',-0.030
'[05:05:24.210 01/05/2000]',-0.023
'[05:05:24.213 01/05/2000]',-0.015
'[05:05:24.217 01/05/2000]',-0.007
'[05:05:24.220 01/05/2000]',0.000
'[05:05:24.223 01/05/2000]',0.008
'[05:05:24.227 01/05/2000]',0.016
'[05:05:24.230 01/05/2000]',0.024
'[05:05:24.233 01/05/2000]',0.034
'[05:05:24.237 01/05/2000]',0.043
'[05:05:24.240 01/05/2000]',0.051
'[05:05:24.243 01/05/2000]',0.056
'[05:05:24.247 01/05/2000]',0.061
'[05:05:24.250 01/05/2000]',0.066
'[05:05:24.253 01/05/2000]',0.070
'[05:05:24.257 01/05/2000]',0.074
'[05:05:24.260 01/05/2000]',0.077
'[05:05:24.263 01/05/2000]',0.079
'[05:05:24.267 01/05/2000]',0.082
'[05:05:24.270 01/05/2000]',0.084
'[05:05:24.273 01/05/2000]',0.086
'[05:05:24.277 01/05/2000]',0.087
'[05:05:24.280 01/05/2000]',0.086
'[05:05:24.283 01/05/2000]',0.084
'[05:05:24.287 01/05/2000]',0.080
'[05:05:24.290 01/05/2000]',0.076
'[05:05:24.293 01/05/2000]',0.072
'[05:05:24.297 01/05/2000]',0.067
'[05:05:24.300 01/05/2000]',0.062
'[05:05:24.303 01/05/2000]',0.056
'[05:05:24.307 01/05/2000]',0.049
'[05:05:24.310 01/05/2000]',0.041
'[05:05:24.313 01/05/2000]',0.034
'[05:05:24.317 01/05/2000]',0.023
'[05:05:24.320 01/05/2000]',0.011
'[05:05:24.323 01/05/2000]',0.001
'[05:05:24.327 01/05/2000]',-0.004
'[05:05:24.330 01/05/2000]',-0.010
'[05:05:24.333 01/05/2000]',-0.014
'[05:05:24.337 01/05/2000]',-0.016
'[05:05:24.340 01/05/2000]',-0.018
'[05:05:24.343 01/05/2000]',-0.019
'[05:05:24.347 01/05/2000]',-0.021
'[05:05:24.350 01/05/2000]',-0.022
'[05:05:24.353 01/05/2000]',-0.024
'[05:05:24.357 01/05/2000]',-0.025
'[05:05:24.360 01/05/2000]',-0.026
'[05:05:24.363 01/05/2000]',-0.027
'[05:05:24.367 01/05/2000]',-0.027
'[05:05:24.370 01/05/2000]',-0.028
'[05:05:24.373 01/05/2000]',-0.029
'[05:05:24.377 01/05/2000]',-0.030
'[05:05:24.380 01/05/2000]',-0.030
'[05:05:24.383 01/05/2000]',-0.030
'[05:05:24.387 01/05/2000]',-0.030
'[05:05:24.390 01/05/2000]',-0.029
'[05:05:24.393 01/05/2000]',-0.028
'[05:05:24.397 01/05/2000]',-0.027
'[05:05:24.400 01/05/2000]',-0.027
'[05:05:24.403 01/05/2000]',-0.026
'[05:05:24.407 01/05/2000]',-0.026
'[05:05:24.410 01/05/2000]',-0.025
'[05:05:24.413 01/05/2000]',-0.025
'[05:05:24.417 01/05/2000]',-0.024
'[05:05:24.420 01/05/2000]',-0.024
'[05:05:24.423 01/05/2000]',-0.023
'[05:05:24.427 01/05/2000]',-0.023
'[05:05:24.430 01/05/2000]',-0.022
'[05:05:24.433 01/05/2000]',-0.021
'[05:05:24.437 01/05/2000]',-0.021
'[05:05:24.440 01/05/2000]',-0.021
'[05:05:24.443 01/05/2000]',-0.020
'[05:05:24.447 01/05/2000]',-0.020
'[05:05:24.450 01/05/2000]',-0.020
'[05:05:24.453 01/05/2000]',-0.020
'[05:05:24.457 01/05/2000]',-0.020
'[05:05:24.460 01/05/2000]',-0.019
'[05:05:24.463 01/05/2000]',-0.018
'[05:05:24.467 01/05/2000]',-0.018
'[05:05:24.470 01/05/2000]',-0.017
'[05:05:24.473 01/05/2000]',-0.016
'[05:05:24.477 01/05/2000]',-0.015
'[05:05:24.480 01/05/2000]',-0.013
'[05:05:24.483 01/05/2000]',-0.011
'[05:05:24.487 01/05/2000]',-0.009
'[05:05:24.490 01/05/2000]',-0.007
'[05:05:24.493 01/05/2000]',-0.006
'[05:05:24.497 01/05/2000]',-0.004
'[05:05:24.500 01/05/2000]',-0.003
'[05:05:24.503 01/05/2000]',-0.001
'[05:05:24.507 01/05/2000]',0.002
'[05:05:24.510 01/05/2000]',0.005
'[05:05:24.513 01/05/2000]',0.009
'[05:05:24.517 01/05/2000]',0.012
'[05:05:24.520 01/05/2000]',0.014
'[05:05:24.523 01/05/2000]',0.016
'[05:05:24.527 01/05/2000]',0.017
'[05:05:24.530 01/05/2000]',0.017
'[05:05:24.533 01/05/2000]',0.017
'[05:05:24.537 01/05/2000]',0.016
'[05:05:24.540 01/05/2000]',0.013
'[05:05:24.543 01/05/2000]',0.009
'[05:05:24.547 01/05/2000]',0.004
'[05:05:24.550 01/05/2000]',0.000
'[05:05:24.553 01/05/2000]',-0.002
'[05:05:24.557 01/05/2000]',-0.005
'[05:05:24.560 01/05/2000]',-0.009
'[05:05:24.563 01/05/2000]',-0.014
'[05:05:24.567 01/05/2000]',-0.019
'[05:05:24.570 01/05/2000]',-0.023
'[05:05:24.573 01/05/2000]',-0.024
'[05:05:24.577 01/05/2000]',-0.024
'[05:05:24.580 01/05/2000]',-0.022
'[05:05:24.583 01/05/2000]',-0.020
'[05:05:24.587 01/05/2000]',-0.017
'[05:05:24.590 01/05/2000]',-0.015
'[05:05:24.593 01/05/2000]',-0.014
'[05:05:24.597 01/05/2000]',-0.011
'[05:05:24.600 01/05/2000]',-0.009
'[05:05:24.603 01/05/2000]',-0.006
'[05:05:24.607 01/05/2000]',-0.005
'[05:05:24.610 01/05/2000]',-0.003
'[05:05:24.613 01/05/2000]',-0.002
'[05:05:24.617 01/05/2000]',-0.002
'[05:05:24.620 01/05/2000]',-0.002
'[05:05:24.623 01/05/2000]',-0.003
'[05:05:24.627 01/05/2000]',-0.004
'[05:05:24.630 01/05/2000]',-0.007
'[05:05:24.633 01/05/2000]',-0.009
'[05:05:24.637 01/05/2000]',-0.011
'[05:05:24.640 01/05/2000]',-0.013
'[05:05:24.643 01/05/2000]',-0.017
'[05:05:24.647 01/05/2000]',-0.020
'[05:05:24.650 01/05/2000]',-0.021
'[05:05:24.653 01/05/2000]',-0.019
'[05:05:24.657 01/05/2000]',-0.013
'[05:05:24.660 01/05/2000]',-0.005
'[05:05:24.663 01/05/2000]',0.008
'[05:05:24.667 01/05/2000]',0.031
'[05:05:24.670 01/05/2000]',0.039
'[05:05:24.673 01/05/2000]',0.043
'[05:05:24.677 01/05/2000]',0.047
'[05:05:24.680 01/05/2000]',0.050
'[05:05:24.683 01/05/2000]',0.053
'[05:05:24.687 01/05/2000]',0.055
'[05:05:24.690 01/05/2000]',0.057
'[05:05:24.693 01/05/2000]',0.059
'[05:05:24.697 01/05/2000]',0.061
'[05:05:24.700 01/05/2000]',0.062
'[05:05:24.703 01/05/2000]',0.063
'[05:05:24.707 01/05/2000]',0.064
'[05:05:24.710 01/05/2000]',0.064
'[05:05:24.713 01/05/2000]',0.064
'[05:05:24.717 01/05/2000]',0.065
'[05:05:24.720 01/05/2000]',0.065
'[05:05:24.723 01/05/2000]',0.067
'[05:05:24.727 01/05/2000]',0.070
'[05:05:24.730 01/05/2000]',0.072
'[05:05:24.733 01/05/2000]',0.073
'[05:05:24.737 01/05/2000]',0.070
'[05:05:24.740 01/05/2000]',0.062
'[05:05:24.743 01/05/2000]',0.054
'[05:05:24.747 01/05/2000]',0.048
'[05:05:24.750 01/05/2000]',0.043
'[05:05:24.753 01/05/2000]',0.037
'[05:05:24.757 01/05/2000]',0.032
'[05:05:24.760 01/05/2000]',0.027
'[05:05:24.763 01/05/2000]',0.023
'[05:05:24.767 01/05/2000]',0.020
'[05:05:24.770 01/05/2000]',0.016
'[05:05:24.773 01/05/2000]',0.013
'[05:05:24.777 01/05/2000]',0.010
'[05:05:24.780 01/05/2000]',0.006
'[05:05:24.783 01/05/2000]',0.000
'[05:05:24.787 01/05/2000]',-0.004
'[05:05:24.790 01/05/2000]',-0.004
'[05:05:24.793 01/05/2000]',0.001
'[05:05:24.797 01/05/2000]',0.010
'[05:05:24.800 01/05/2000]',0.025
'[05:05:24.803 01/05/2000]',0.046
'[05:05:24.807 01/05/2000]',0.076
'[05:05:24.810 01/05/2000]',0.113
'[05:05:24.813 01/05/2000]',0.164
'[05:05:24.817 01/05/2000]',0.233
'[05:05:24.820 01/05/2000]',0.322
'[05:05:24.823 01/05/2000]',0.428
'[05:05:24.827 01/05/2000]',0.547
'[05:05:24.830 01/05/2000]',0.666
'[05:05:24.833 01/05/2000]',0.774
'[05:05:24.837 01/05/2000]',0.851
'[05:05:24.840 01/05/2000]',0.861
'[05:05:24.843 01/05/2000]',0.835
'[05:05:24.847 01/05/2000]',0.721
'[05:05:24.850 01/05/2000]',0.554
'[05:05:24.853 01/05/2000]',0.363
'[05:05:24.857 01/05/2000]',0.183
'[05:05:24.860 01/05/2000]',0.041
'[05:05:24.863 01/05/2000]',-0.050
'[05:05:24.867 01/05/2000]',-0.069
'[05:05:24.870 01/05/2000]',-0.075
'[05:05:24.873 01/05/2000]',-0.078
'[05:05:24.877 01/05/2000]',-0.080
'[05:05:24.880 01/05/2000]',-0.083
'[05:05:24.883 01/05/2000]',-0.085
'[05:05:24.887 01/05/2000]',-0.086
'[05:05:24.890 01/05/2000]',-0.087
'[05:05:24.893 01/05/2000]',-0.088
'[05:05:24.897 01/05/2000]',-0.089
'[05:05:24.900 01/05/2000]',-0.091
'[05:05:24.903 01/05/2000]',-0.094
'[05:05:24.907 01/05/2000]',-0.097
'[05:05:24.910 01/05/2000]',-0.101
'[05:05:24.913 01/05/2000]',-0.102
'[05:05:24.917 01/05/2000]',-0.099
'[05:05:24.920 01/05/2000]',-0.092
'[05:05:24.923 01/05/2000]',-0.086
'[05:05:24.927 01/05/2000]',-0.083
'[05:05:24.930 01/05/2000]',-0.080
'[05:05:24.933 01/05/2000]',-0.078
'[05:05:24.937 01/05/2000]',-0.076
'[05:05:24.940 01/05/2000]',-0.074
'[05:05:24.943 01/05/2000]',-0.071
'[05:05:24.947 01/05/2000]',-0.069
'[05:05:24.950 01/05/2000]',-0.067
'[05:05:24.953 01/05/2000]',-0.065
'[05:05:24.957 01/05/2000]',-0.063
'[05:05:24.960 01/05/2000]',-0.061
'[05:05:24.963 01/05/2000]',-0.060
'[05:05:24.967 01/05/2000]',-0.058
'[05:05:24.970 01/05/2000]',-0.057
'[05:05:24.973 01/05/2000]',-0.055
'[05:05:24.977 01/05/2000]',-0.053
'[05:05:24.980 01/05/2000]',-0.051
'[05:05:24.983 01/05/2000]',-0.048
'[05:05:24.987 01/05/2000]',-0.045
'[05:05:24.990 01/05/2000]',-0.042
'[05:05:24.993 01/05/2000]',-0.039
'[05:05:24.997 01/05/2000]',-0.035
'[05:05:25.000 01/05/2000]',-0.030
'[05:05:25.003 01/05/2000]',-0.024
'[05:05:25.007 01/05/2000]',-0.020
'[05:05:25.010 01/05/2000]',-0.016
'[05:05:25.013 01/05/2000]',-0.014
'[05:05:25.017 01/05/2000]',-0.011
'[05:05:25.020 01/05/2000]',-0.007
'[05:05:25.023 01/05/2000]',-0.001
'[05:05:25.027 01/05/2000]',0.009
'[05:05:25.030 01/05/2000]',0.029
'[05:05:25.033 01/05/2000]',0.044
'[05:05:25.037 01/05/2000]',0.054
'[05:05:25.040 01/05/2000]',0.062
'[05:05:25.043 01/05/2000]',0.066
'[05:05:25.047 01/05/2000]',0.069
'[05:05:25.050 01/05/2000]',0.071
'[05:05:25.053 01/05/2000]',0.073
'[05:05:25.057 01/05/2000]',0.075
'[05:05:25.060 01/05/2000]',0.077
'[05:05:25.063 01/05/2000]',0.079
'[05:05:25.067 01/05/2000]',0.080
'[05:05:25.070 01/05/2000]',0.081
'[05:05:25.073 01/05/2000]',0.080
'[05:05:25.077 01/05/2000]',0.077
'[05:05:25.080 01/05/2000]',0.073
'[05:05:25.083 01/05/2000]',0.067
'[05:05:25.087 01/05/2000]',0.061
'[05:05:25.090 01/05/2000]',0.052
'[05:05:25.093 01/05/2000]',0.036
'[05:05:25.097 01/05/2000]',0.017
'[05:05:25.100 01/05/2000]',0.003
'[05:05:25.103 01/05/2000]',-0.007
'[05:05:25.107 01/05/2000]',-0.015
'[05:05:25.110 01/05/2000]',-0.019
'[05:05:25.113 01/05/2000]',-0.022
'[05:05:25.117 01/05/2000]',-0.024
'[05:05:25.120 01/05/2000]',-0.026
'[05:05:25.123 01/05/2000]',-0.028
'[05:05:25.127 01/05/2000]',-0.030
'[05:05:25.130 01/05/2000]',-0.032
'[05:05:25.133 01/05/2000]',-0.033
'[05:05:25.137 01/05/2000]',-0.036
'[05:05:25.140 01/05/2000]',-0.038
'[05:05:25.143 01/05/2000]',-0.042
'[05:05:25.147 01/05/2000]',-0.046
'[05:05:25.150 01/05/2000]',-0.050
'[05:05:25.153 01/05/2000]',-0.053
'[05:05:25.157 01/05/2000]',-0.055
'[05:05:25.160 01/05/2000]',-0.057
'[05:05:25.163 01/05/2000]',-0.058
'[05:05:25.167 01/05/2000]',-0.060
'[05:05:25.170 01/05/2000]',-0.062
'[05:05:25.173 01/05/2000]',-0.064
'[05:05:25.177 01/05/2000]',-0.066
'[05:05:25.180 01/05/2000]',-0.068
'[05:05:25.183 01/05/2000]',-0.069
'[05:05:25.187 01/05/2000]',-0.071
'[05:05:25.190 01/05/2000]',-0.072
'[05:05:25.193 01/05/2000]',-0.072
'[05:05:25.197 01/05/2000]',-0.072
'[05:05:25.200 01/05/2000]',-0.072
'[05:05:25.203 01/05/2000]',-0.071
'[05:05:25.207 01/05/2000]',-0.070
'[05:05:25.210 01/05/2000]',-0.069
'[05:05:25.213 01/05/2000]',-0.067
'[05:05:25.217 01/05/2000]',-0.066
'[05:05:25.220 01/05/2000]',-0.064
'[05:05:25.223 01/05/2000]',-0.063
'[05:05:25.227 01/05/2000]',-0.061
'[05:05:25.230 01/05/2000]',-0.059
'[05:05:25.233 01/05/2000]',-0.057
'[05:05:25.237 01/05/2000]',-0.056
'[05:05:25.240 01/05/2000]',-0.055
'[05:05:25.243 01/05/2000]',-0.054
'[05:05:25.247 01/05/2000]',-0.054
'[05:05:25.250 01/05/2000]',-0.053
'[05:05:25.253 01/05/2000]',-0.051
'[05:05:25.257 01/05/2000]',-0.050
'[05:05:25.260 01/05/2000]',-0.049
'[05:05:25.263 01/05/2000]',-0.048
'[05:05:25.267 01/05/2000]',-0.048
'[05:05:25.270 01/05/2000]',-0.047
'[05:05:25.273 01/05/2000]',-0.045
'[05:05:25.277 01/05/2000]',-0.044
'[05:05:25.280 01/05/2000]',-0.043
'[05:05:25.283 01/05/2000]',-0.043
'[05:05:25.287 01/05/2000]',-0.043
'[05:05:25.290 01/05/2000]',-0.043
'[05:05:25.293 01/05/2000]',-0.044
'[05:05:25.297 01/05/2000]',-0.044
'[05:05:25.300 01/05/2000]',-0.044
'[05:05:25.303 01/05/2000]',-0.044
'[05:05:25.307 01/05/2000]',-0.045
'[05:05:25.310 01/05/2000]',-0.045
'[05:05:25.313 01/05/2000]',-0.045
'[05:05:25.317 01/05/2000]',-0.045
'[05:05:25.320 01/05/2000]',-0.043
'[05:05:25.323 01/05/2000]',-0.042
'[05:05:25.327 01/05/2000]',-0.041
'[05:05:25.330 01/05/2000]',-0.039
'[05:05:25.333 01/05/2000]',-0.038
'[05:05:25.337 01/05/2000]',-0.037
'[05:05:25.340 01/05/2000]',-0.036
'[05:05:25.343 01/05/2000]',-0.034
'[05:05:25.347 01/05/2000]',-0.033
'[05:05:25.350 01/05/2000]',-0.031
'[05:05:25.353 01/05/2000]',-0.030
'[05:05:25.357 01/05/2000]',-0.029
'[05:05:25.360 01/05/2000]',-0.027
'[05:05:25.363 01/05/2000]',-0.025
'[05:05:25.367 01/05/2000]',-0.022
'[05:05:25.370 01/05/2000]',-0.019
'[05:05:25.373 01/05/2000]',-0.016
'[05:05:25.377 01/05/2000]',-0.014
'[05:05:25.380 01/05/2000]',-0.013
'[05:05:25.383 01/05/2000]',-0.011
'[05:05:25.387 01/05/2000]',-0.010
'[05:05:25.390 01/05/2000]',-0.009
'[05:05:25.393 01/05/2000]',-0.007
'[05:05:25.397 01/05/2000]',-0.006
'[05:05:25.400 01/05/2000]',-0.005
'[05:05:25.403 01/05/2000]',-0.004
'[05:05:25.407 01/05/2000]',0.000
'[05:05:25.410 01/05/2000]',0.003
'[05:05:25.413 01/05/2000]',0.003
'[05:05:25.417 01/05/2000]',0.002
'[05:05:25.420 01/05/2000]',0.000
'[05:05:25.423 01/05/2000]',-0.001
'[05:05:25.427 01/05/2000]',-0.004
'[05:05:25.430 01/05/2000]',-0.006
'[05:05:25.433 01/05/2000]',-0.006
'[05:05:25.437 01/05/2000]',-0.004
'[05:05:25.440 01/05/2000]',-0.001
'[05:05:25.443 01/05/2000]',0.000
'[05:05:25.447 01/05/2000]',0.001
'[05:05:25.450 01/05/2000]',0.003
'[05:05:25.453 01/05/2000]',0.004
'[05:05:25.457 01/05/2000]',0.007
'[05:05:25.460 01/05/2000]',0.009
'[05:05:25.463 01/05/2000]',0.012
'[05:05:25.467 01/05/2000]',0.015
'[05:05:25.470 01/05/2000]',0.018
'[05:05:25.473 01/05/2000]',0.022
'[05:05:25.477 01/05/2000]',0.026
'[05:05:25.480 01/05/2000]',0.029
'[05:05:25.483 01/05/2000]',0.032
'[05:05:25.487 01/05/2000]',0.034
'[05:05:25.490 01/05/2000]',0.037
'[05:05:25.493 01/05/2000]',0.040
'[05:05:25.497 01/05/2000]',0.043
'[05:05:25.500 01/05/2000]',0.046
'[05:05:25.503 01/05/2000]',0.048
'[05:05:25.507 01/05/2000]',0.050
'[05:05:25.510 01/05/2000]',0.050
'[05:05:25.513 01/05/2000]',0.050
'[05:05:25.517 01/05/2000]',0.049
'[05:05:25.520 01/05/2000]',0.048
'[05:05:25.523 01/05/2000]',0.045
'[05:05:25.527 01/05/2000]',0.041
'[05:05:25.530 01/05/2000]',0.037
'[05:05:25.533 01/05/2000]',0.033
'[05:05:25.537 01/05/2000]',0.026
'[05:05:25.540 01/05/2000]',0.013
'[05:05:25.543 01/05/2000]',0.006
'[05:05:25.547 01/05/2000]',0.001
'[05:05:25.550 01/05/2000]',-0.003
'[05:05:25.553 01/05/2000]',-0.006
'[05:05:25.557 01/05/2000]',-0.008
'[05:05:25.560 01/05/2000]',-0.008
'[05:05:25.563 01/05/2000]',-0.007
'[05:05:25.567 01/05/2000]',-0.004
'[05:05:25.570 01/05/2000]',-0.001
'[05:05:25.573 01/05/2000]',0.001
'[05:05:25.577 01/05/2000]',0.004
'[05:05:25.580 01/05/2000]',0.007
'[05:05:25.583 01/05/2000]',0.011
'[05:05:25.587 01/05/2000]',0.014
'[05:05:25.590 01/05/2000]',0.016
'[05:05:25.593 01/05/2000]',0.021
'[05:05:25.597 01/05/2000]',0.038
'[05:05:25.600 01/05/2000]',0.075
'[05:05:25.603 01/05/2000]',0.133
'[05:05:25.607 01/05/2000]',0.215
'[05:05:25.610 01/05/2000]',0.317
'[05:05:25.613 01/05/2000]',0.434
'[05:05:25.617 01/05/2000]',0.553
'[05:05:25.620 01/05/2000]',0.665
'[05:05:25.623 01/05/2000]',0.760
'[05:05:25.627 01/05/2000]',0.827
'[05:05:25.630 01/05/2000]',0.844
'[05:05:25.633 01/05/2000]',0.832
'[05:05:25.637 01/05/2000]',0.754
'[05:05:25.640 01/05/2000]',0.616
'[05:05:25.643 01/05/2000]',0.445
'[05:05:25.647 01/05/2000]',0.266
'[05:05:25.650 01/05/2000]',0.114
'[05:05:25.653 01/05/2000]',0.012
'[05:05:25.657 01/05/2000]',-0.034
'[05:05:25.660 01/05/2000]',-0.053
'[05:05:25.663 01/05/2000]',-0.063
'[05:05:25.667 01/05/2000]',-0.073
'[05:05:25.670 01/05/2000]',-0.083
'[05:05:25.673 01/05/2000]',-0.090
'[05:05:25.677 01/05/2000]',-0.094
'[05:05:25.680 01/05/2000]',-0.096
'[05:05:25.683 01/05/2000]',-0.097
'[05:05:25.687 01/05/2000]',-0.098
'[05:05:25.690 01/05/2000]',-0.099
'[05:05:25.693 01/05/2000]',-0.098
'[05:05:25.697 01/05/2000]',-0.098
'[05:05:25.700 01/05/2000]',-0.097
'[05:05:25.703 01/05/2000]',-0.094
'[05:05:25.707 01/05/2000]',-0.091
'[05:05:25.710 01/05/2000]',-0.087
'[05:05:25.713 01/05/2000]',-0.082
'[05:05:25.717 01/05/2000]',-0.078
'[05:05:25.720 01/05/2000]',-0.074
'[05:05:25.723 01/05/2000]',-0.071
'[05:05:25.727 01/05/2000]',-0.069
'[05:05:25.730 01/05/2000]',-0.067
'[05:05:25.733 01/05/2000]',-0.065
'[05:05:25.737 01/05/2000]',-0.061
'[05:05:25.740 01/05/2000]',-0.058
'[05:05:25.743 01/05/2000]',-0.054
'[05:05:25.747 01/05/2000]',-0.052
'[05:05:25.750 01/05/2000]',-0.050
'[05:05:25.753 01/05/2000]',-0.048
'[05:05:25.757 01/05/2000]',-0.047
'[05:05:25.760 01/05/2000]',-0.045
'[05:05:25.763 01/05/2000]',-0.043
'[05:05:25.767 01/05/2000]',-0.040
'[05:05:25.770 01/05/2000]',-0.034
'[05:05:25.773 01/05/2000]',-0.023
'[05:05:25.777 01/05/2000]',-0.019
'[05:05:25.780 01/05/2000]',-0.017
'[05:05:25.783 01/05/2000]',-0.015
'[05:05:25.787 01/05/2000]',-0.014
'[05:05:25.790 01/05/2000]',-0.013
'[05:05:25.793 01/05/2000]',-0.009
'[05:05:25.797 01/05/2000]',-0.005
'[05:05:25.800 01/05/2000]',0.001
'[05:05:25.803 01/05/2000]',0.008
'[05:05:25.807 01/05/2000]',0.018
'[05:05:25.810 01/05/2000]',0.026
'[05:05:25.813 01/05/2000]',0.034
'[05:05:25.817 01/05/2000]',0.043
'[05:05:25.820 01/05/2000]',0.054
'[05:05:25.823 01/05/2000]',0.069
'[05:05:25.827 01/05/2000]',0.080
'[05:05:25.830 01/05/2000]',0.089
'[05:05:25.833 01/05/2000]',0.097
'[05:05:25.837 01/05/2000]',0.103
'[05:05:25.840 01/05/2000]',0.108
'[05:05:25.843 01/05/2000]',0.117
'[05:05:25.847 01/05/2000]',0.127
'[05:05:25.850 01/05/2000]',0.131
'[05:05:25.853 01/05/2000]',0.133
'[05:05:25.857 01/05/2000]',0.136
'[05:05:25.860 01/05/2000]',0.137
'[05:05:25.863 01/05/2000]',0.137
'[05:05:25.867 01/05/2000]',0.130
'[05:05:25.870 01/05/2000]',0.120
'[05:05:25.873 01/05/2000]',0.113
'[05:05:25.877 01/05/2000]',0.107
'[05:05:25.880 01/05/2000]',0.102
'[05:05:25.883 01/05/2000]',0.096
'[05:05:25.887 01/05/2000]',0.092
'[05:05:25.890 01/05/2000]',0.088
'[05:05:25.893 01/05/2000]',0.082
'[05:05:25.897 01/05/2000]',0.070
'[05:05:25.900 01/05/2000]',0.049
'[05:05:25.903 01/05/2000]',0.033
'[05:05:25.907 01/05/2000]',0.025
'[05:05:25.910 01/05/2000]',0.018
'[05:05:25.913 01/05/2000]',0.014
'[05:05:25.917 01/05/2000]',0.010
'[05:05:25.920 01/05/2000]',0.002
'[05:05:25.923 01/05/2000]',-0.012
'[05:05:25.927 01/05/2000]',-0.023
'[05:05:25.930 01/05/2000]',-0.030
'[05:05:25.933 01/05/2000]',-0.034
'[05:05:25.937 01/05/2000]',-0.037
'[05:05:25.940 01/05/2000]',-0.039
'[05:05:25.943 01/05/2000]',-0.042
'[05:05:25.947 01/05/2000]',-0.045
'[05:05:25.950 01/05/2000]',-0.050
'[05:05:25.953 01/05/2000]',-0.052
'[05:05:25.957 01/05/2000]',-0.049
'[05:05:25.960 01/05/2000]',-0.043
'[05:05:25.963 01/05/2000]',-0.033
'[05:05:25.967 01/05/2000]',-0.020
'[05:05:25.970 01/05/2000]',-0.015
'[05:05:25.973 01/05/2000]',-0.011
'[05:05:25.977 01/05/2000]',-0.009
'[05:05:25.980 01/05/2000]',-0.008
'[05:05:25.983 01/05/2000]',-0.007
'[05:05:25.987 01/05/2000]',-0.007
'[05:05:25.990 01/05/2000]',-0.007
'[05:05:25.993 01/05/2000]',-0.007
'[05:05:25.997 01/05/2000]',-0.007
'[05:05:26.000 01/05/2000]',-0.007
'[05:05:26.003 01/05/2000]',-0.007
'[05:05:26.007 01/05/2000]',-0.007
'[05:05:26.010 01/05/2000]',-0.007
'[05:05:26.013 01/05/2000]',-0.009
'[05:05:26.017 01/05/2000]',-0.013
'[05:05:26.020 01/05/2000]',-0.017
'[05:05:26.023 01/05/2000]',-0.025
'[05:05:26.027 01/05/2000]',-0.039
'[05:05:26.030 01/05/2000]',-0.048
'[05:05:26.033 01/05/2000]',-0.055
'[05:05:26.037 01/05/2000]',-0.058
'[05:05:26.040 01/05/2000]',-0.055
'[05:05:26.043 01/05/2000]',-0.049
'[05:05:26.047 01/05/2000]',-0.043
'[05:05:26.050 01/05/2000]',-0.036
'[05:05:26.053 01/05/2000]',-0.030
'[05:05:26.057 01/05/2000]',-0.024
'[05:05:26.060 01/05/2000]',-0.017
'[05:05:26.063 01/05/2000]',-0.009
'[05:05:26.067 01/05/2000]',-0.004
'[05:05:26.070 01/05/2000]',-0.001
'[05:05:26.073 01/05/2000]',0.000
'[05:05:26.077 01/05/2000]',0.001
'[05:05:26.080 01/05/2000]',0.002
'[05:05:26.083 01/05/2000]',0.002
'[05:05:26.087 01/05/2000]',0.002
'[05:05:26.090 01/05/2000]',0.001
'[05:05:26.093 01/05/2000]',0.000
'[05:05:26.097 01/05/2000]',-0.001
'[05:05:26.100 01/05/2000]',-0.003
'[05:05:26.103 01/05/2000]',-0.004
'[05:05:26.107 01/05/2000]',-0.004
'[05:05:26.110 01/05/2000]',-0.005
'[05:05:26.113 01/05/2000]',-0.006
'[05:05:26.117 01/05/2000]',-0.007
'[05:05:26.120 01/05/2000]',-0.008
'[05:05:26.123 01/05/2000]',-0.009
'[05:05:26.127 01/05/2000]',-0.010
'[05:05:26.130 01/05/2000]',-0.011
'[05:05:26.133 01/05/2000]',-0.012
'[05:05:26.137 01/05/2000]',-0.012
'[05:05:26.140 01/05/2000]',-0.012
'[05:05:26.143 01/05/2000]',-0.012
'[05:05:26.147 01/05/2000]',-0.011
'[05:05:26.150 01/05/2000]',-0.010
'[05:05:26.153 01/05/2000]',-0.009
'[05:05:26.157 01/05/2000]',-0.008
'[05:05:26.160 01/05/2000]',-0.007
'[05:05:26.163 01/05/2000]',-0.007
'[05:05:26.167 01/05/2000]',-0.006
'[05:05:26.170 01/05/2000]',-0.006
'[05:05:26.173 01/05/2000]',-0.006
'[05:05:26.177 01/05/2000]',-0.006
'[05:05:26.180 01/05/2000]',-0.006
'[05:05:26.183 01/05/2000]',-0.005
'[05:05:26.187 01/05/2000]',-0.004
'[05:05:26.190 01/05/2000]',-0.002
'[05:05:26.193 01/05/2000]',-0.001
'[05:05:26.197 01/05/2000]',-0.003
'[05:05:26.200 01/05/2000]',-0.008
'[05:05:26.203 01/05/2000]',-0.011
'[05:05:26.207 01/05/2000]',-0.014
'[05:05:26.210 01/05/2000]',-0.017
'[05:05:26.213 01/05/2000]',-0.020
'[05:05:26.217 01/05/2000]',-0.020
'[05:05:26.220 01/05/2000]',-0.020
'[05:05:26.223 01/05/2000]',-0.018
'[05:05:26.227 01/05/2000]',-0.016
'[05:05:26.230 01/05/2000]',-0.015
'[05:05:26.233 01/05/2000]',-0.014
'[05:05:26.237 01/05/2000]',-0.012
'[05:05:26.240 01/05/2000]',-0.011
'[05:05:26.243 01/05/2000]',-0.008
'[05:05:26.247 01/05/2000]',-0.006
'[05:05:26.250 01/05/2000]',-0.003
'[05:05:26.253 01/05/2000]',-0.001
'[05:05:26.257 01/05/2000]',0.001
'[05:05:26.260 01/05/2000]',0.004
'[05:05:26.263 01/05/2000]',0.010
'[05:05:26.267 01/05/2000]',0.021
'[05:05:26.270 01/05/2000]',0.028
'[05:05:26.273 01/05/2000]',0.032
'[05:05:26.277 01/05/2000]',0.034
'[05:05:26.280 01/05/2000]',0.035
'[05:05:26.283 01/05/2000]',0.037
'[05:05:26.287 01/05/2000]',0.039
'[05:05:26.290 01/05/2000]',0.041
'[05:05:26.293 01/05/2000]',0.044
'[05:05:26.297 01/05/2000]',0.046
'[05:05:26.300 01/05/2000]',0.048
'[05:05:26.303 01/05/2000]',0.050
'[05:05:26.307 01/05/2000]',0.054
'[05:05:26.310 01/05/2000]',0.063
'[05:05:26.313 01/05/2000]',0.075
'[05:05:26.317 01/05/2000]',0.079
'[05:05:26.320 01/05/2000]',0.081
'[05:05:26.323 01/05/2000]',0.083
'[05:05:26.327 01/05/2000]',0.084
'[05:05:26.330 01/05/2000]',0.083
'[05:05:26.333 01/05/2000]',0.081
'[05:05:26.337 01/05/2000]',0.076
'[05:05:26.340 01/05/2000]',0.070
'[05:05:26.343 01/05/2000]',0.055
'[05:05:26.347 01/05/2000]',0.043
'[05:05:26.350 01/05/2000]',0.036
'[05:05:26.353 01/05/2000]',0.031
'[05:05:26.357 01/05/2000]',0.026
'[05:05:26.360 01/05/2000]',0.021
'[05:05:26.363 01/05/2000]',0.017
'[05:05:26.367 01/05/2000]',0.014
'[05:05:26.370 01/05/2000]',0.012
'[05:05:26.373 01/05/2000]',0.009
'[05:05:26.377 01/05/2000]',0.006
'[05:05:26.380 01/05/2000]',0.003
'[05:05:26.383 01/05/2000]',0.000
'[05:05:26.387 01/05/2000]',-0.004
'[05:05:26.390 01/05/2000]',-0.009
'[05:05:26.393 01/05/2000]',-0.013
'[05:05:26.397 01/05/2000]',-0.014
'[05:05:26.400 01/05/2000]',-0.012
'[05:05:26.403 01/05/2000]',-0.008
'[05:05:26.407 01/05/2000]',0.002
'[05:05:26.410 01/05/2000]',0.030
'[05:05:26.413 01/05/2000]',0.074
'[05:05:26.417 01/05/2000]',0.137
'[05:05:26.420 01/05/2000]',0.221
'[05:05:26.423 01/05/2000]',0.325
'[05:05:26.427 01/05/2000]',0.442
'[05:05:26.430 01/05/2000]',0.565
'[05:05:26.433 01/05/2000]',0.681
'[05:05:26.437 01/05/2000]',0.777
'[05:05:26.440 01/05/2000]',0.843
'[05:05:26.443 01/05/2000]',0.867
'[05:05:26.447 01/05/2000]',0.837
'[05:05:26.450 01/05/2000]',0.749
'[05:05:26.453 01/05/2000]',0.606
'[05:05:26.457 01/05/2000]',0.427
'[05:05:26.460 01/05/2000]',0.239
'[05:05:26.463 01/05/2000]',0.078
'[05:05:26.467 01/05/2000]',-0.029
'[05:05:26.470 01/05/2000]',-0.058
'[05:05:26.473 01/05/2000]',-0.067
'[05:05:26.477 01/05/2000]',-0.072
'[05:05:26.480 01/05/2000]',-0.077
'[05:05:26.483 01/05/2000]',-0.082
'[05:05:26.487 01/05/2000]',-0.087
'[05:05:26.490 01/05/2000]',-0.093
'[05:05:26.493 01/05/2000]',-0.098
'[05:05:26.497 01/05/2000]',-0.103
'[05:05:26.500 01/05/2000]',-0.110
'[05:05:26.503 01/05/2000]',-0.118
'[05:05:26.507 01/05/2000]',-0.123
'[05:05:26.510 01/05/2000]',-0.125
'[05:05:26.513 01/05/2000]',-0.115
'[05:05:26.517 01/05/2000]',-0.106
'[05:05:26.520 01/05/2000]',-0.100
'[05:05:26.523 01/05/2000]',-0.094
'[05:05:26.527 01/05/2000]',-0.089
'[05:05:26.530 01/05/2000]',-0.085
'[05:05:26.533 01/05/2000]',-0.082
'[05:05:26.537 01/05/2000]',-0.079
'[05:05:26.540 01/05/2000]',-0.075
'[05:05:26.543 01/05/2000]',-0.071
'[05:05:26.547 01/05/2000]',-0.066
'[05:05:26.550 01/05/2000]',-0.062
'[05:05:26.553 01/05/2000]',-0.059
'[05:05:26.557 01/05/2000]',-0.058
'[05:05:26.560 01/05/2000]',-0.057
'[05:05:26.563 01/05/2000]',-0.055
'[05:05:26.567 01/05/2000]',-0.054
'[05:05:26.570 01/05/2000]',-0.052
